,heartrate,RRinterval,RRsd,pNN20,pNN50,RRmad
0,73.70184254606365,814.0909090909091,14.312769539848897,0.3,0.0,12.5
1,60.8793686583991,985.5555555555555,33.47423922000356,0.625,0.0,25.000000000000114
2,62.91872997378386,953.6111111111111,58.179691845263946,0.5,0.375,19.999999999999886
3,88.06096528365792,681.3461538461538,2.1066252211737155,0.0,0.0,2.5
4,88.35130160399684,679.1071428571429,6.021326892888346,0.0,0.0,3.75
5,63.81281574049455,940.25,9.711462299777516,0.0,0.0,7.5
6,72.8677891250345,823.4090909090909,15.310154357362991,0.3,0.0,10.0
7,88.21034775233248,680.1923076923077,7.687498496656417,0.0,0.0,5.0
8,64.13301662707839,935.5555555555555,11.53363305112594,0.125,0.0,7.5
9,72.62723521320495,826.1363636363636,10.73247177556145,0.1,0.0,10.0
10,76.6569071067341,782.7083333333334,18.63739334122547,0.36363636363636365,0.0,8.75
11,86.73205988642229,691.7857142857143,41.55921519166283,0.46153846153846156,0.15384615384615385,31.25
12,86.88387635756057,690.5769230769231,14.8438619195407,0.16666666666666666,0.0,12.5
13,63.86375731772219,939.5,17.4928556845359,0.1111111111111111,0.0,12.5
14,65.19967400162999,920.25,24.70956292612235,0.7777777777777778,0.1111111111111111,12.5
15,70.79646017699115,847.5,13.416407864998739,0.3333333333333333,0.0,11.25
16,71.1590296495957,843.1818181818181,25.58610482919545,0.6,0.2,15.0
17,60.55508830950378,990.8333333333334,45.24623986832742,0.625,0.375,27.5
18,71.50595882990248,839.0909090909091,5.251918185586973,0.0,0.0,5.0
19,45.72880279453795,1312.0833333333333,75.94428696236619,0.8,0.6,58.75
20,59.016393442622956,1016.6666666666666,16.0727512683216,0.25,0.125,12.499999999999886
21,51.71020737947751,1160.3125,53.28926809170867,1.0,0.42857142857142855,37.5
22,60.2510460251046,995.8333333333334,105.52777412184487,0.875,0.625,87.5
23,59.35085007727975,1010.9375,17.58628282923938,0.14285714285714285,0.0,13.75
24,68.86657101865136,871.25,62.3322749464513,0.7777777777777778,0.5555555555555556,43.75
25,71.293545773697,841.5909090909091,23.843064726187993,0.3,0.0,12.5
26,83.28513591671486,720.4166666666666,41.38026569379284,0.7272727272727273,0.18181818181818182,32.5
27,61.12054329371817,981.6666666666666,85.08982182245875,0.625,0.625,17.5
28,71.293545773697,841.5909090909091,22.645306740147547,0.5,0.0,22.5
29,72.07207207207207,832.5,34.294844563525345,0.6,0.3,12.5
30,73.74301675977654,813.6363636363636,29.49120894366112,0.3,0.0,25.0
31,88.46044797278141,678.2692307692307,55.82755570801359,0.25,0.0,42.5
32,64.42953020134229,931.25,5.942432162002357,0.0,0.0,5.0
33,80.40201005025126,746.25,19.025750094718124,0.0,0.0,11.25
34,62.35565819861432,962.2222222222222,103.04020550550781,0.75,0.5,40.0
35,72.90803645401823,822.9545454545455,36.53793454968445,0.7,0.2,22.5
36,92.85965529370384,646.1363636363636,46.75083417296175,0.2222222222222222,0.1111111111111111,40.0
37,62.48192074052646,960.2777777777778,13.040771771450558,0.0,0.0,5.0
38,80.22284122562675,747.9166666666666,40.205634624459734,0.5454545454545454,0.0,21.25
39,79.87711213517665,751.1538461538462,5.336321894427542,0.0,0.0,5.0
40,66.815144766147,898.0,8.789197915623474,0.0,0.0,3.75
41,64.76761619190404,926.3888888888889,69.29316856571464,0.875,0.25,32.5
42,75.70977917981072,792.5,112.5,1.0,0.8181818181818182,70.0
43,524.8508946322067,114.31818181818181,112.9163553511409,1.0,1.0,5.0
44,73.43532684283728,817.0454545454545,21.100898888063927,0.4,0.1,10.0
45,62.99212598425197,952.5,27.182510717166846,0.375,0.25,15.0
46,54.0388404165494,1110.3125,18.516778708781935,0.2857142857142857,0.0,13.75
47,71.301247771836,841.5,7.0,0.0,0.0,3.75
48,64.05693950177937,936.6666666666666,51.827706018220695,0.75,0.375,17.5
49,54.29864253393665,1105.0,41.23105625617661,1.0,0.42857142857142855,38.75
50,65.64102564102564,914.0625,144.80017211229412,0.5,0.3333333333333333,10.0
51,59.24300603400987,1012.7777777777778,24.251129539685717,0.875,0.0,17.5
52,80.37957019257605,746.4583333333334,4.943254382376947,0.0,0.0,3.75
53,70.56936647955092,850.2272727272727,4.453617714151233,0.0,0.0,2.5
54,55.23590333716916,1086.25,16.29800601300662,0.14285714285714285,0.0,8.75
55,72.62723521320495,826.1363636363636,30.662451800422343,0.9,0.3,25.0
56,92.7408225227712,646.9642857142857,7.26897587037415,0.0,0.0,5.0
57,69.97084548104957,857.5,7.6127882838382845,0.1,0.0,2.5
58,48.02744425385935,1249.2857142857142,33.61319590243555,0.6666666666666666,0.5,22.5
59,69.66618287373004,861.25,7.685213074469699,0.0,0.0,3.75
60,83.73590982286635,716.5384615384615,38.946937046774856,0.4166666666666667,0.0,32.5
61,69.36416184971098,865.0,18.859528577931584,0.2,0.0,17.5
62,67.64374295377678,887.0,33.16247879758086,0.7777777777777778,0.1111111111111111,23.75
63,93.82853951410222,639.4642857142857,20.727366559449752,0.38461538461538464,0.07692307692307693,13.75
64,55.523423944476576,1080.625,20.907160854597162,0.5714285714285714,0.14285714285714285,20.0
65,74.11566535654127,809.5454545454545,14.955167160329184,0.1,0.0,10.0
66,65.62756357670222,914.25,78.6690059680431,0.7777777777777778,0.5555555555555556,57.5
67,124.71131639722864,481.1111111111111,192.02362091069503,1.0,1.0,171.25
68,75.05863956215794,799.375,35.57745365162231,0.45454545454545453,0.0,35.0
69,92.15578716401536,651.0714285714286,5.802884574739972,0.0,0.0,5.0
70,92.20636663007684,650.7142857142857,19.897697538834457,0.38461538461538464,0.23076923076923078,7.5
71,86.33093525179856,695.0,7.905694150420948,0.0,0.0,7.5
72,76.90066996795805,780.2272727272727,75.86961412256845,0.1111111111111111,0.1111111111111111,7.5
73,75.68988173455979,792.7083333333334,91.16410531136815,0.6363636363636364,0.5454545454545454,22.5
74,60.8793686583991,985.5555555555555,114.25955939692857,0.75,0.5,117.5
75,67.98866855524079,882.5,37.332961307670196,0.7777777777777778,0.1111111111111111,28.75
76,81.88976377952756,732.6923076923077,15.916293612737354,0.25,0.0,10.0
77,,,,,,
78,49.51370468611848,1211.7857142857142,7.405871911902758,0.0,0.0,7.5
79,78.9041095890411,760.4166666666666,31.33876282745628,0.36363636363636365,0.0,21.25
80,77.7327935222672,771.875,79.45206232901279,0.6363636363636364,0.18181818181818182,40.0
81,95.94882729211086,625.3333333333334,18.09389092729612,0.2857142857142857,0.0,15.0
82,75.92934352755074,790.2083333333334,25.606361785479965,0.36363636363636365,0.18181818181818182,23.75
83,61.92660550458715,968.8888888888889,20.31389477642469,0.625,0.0,17.5
84,,,,,,
85,93.92121054004696,638.8333333333334,87.0529851425109,0.35714285714285715,0.21428571428571427,7.5
86,67.07657909446618,894.5,21.73131381210073,0.3333333333333333,0.0,11.25
87,83.53413654618474,718.2692307692307,6.532802981331934,0.0,0.0,2.5
88,86.47450110864746,693.8461538461538,71.47226051880995,0.25,0.25,12.5
89,73.27227310574521,818.8636363636364,30.53246477044848,0.3,0.0,25.0
90,68.43455945252353,876.75,2.75,0.0,0.0,2.5
91,72.68722466960352,825.4545454545455,3.340213285613425,0.0,0.0,2.5
92,80.15585861397162,748.5416666666666,37.00307325825188,0.45454545454545453,0.0,36.25
93,90.29830690674551,664.4642857142857,92.85731456028081,0.9230769230769231,0.6923076923076923,41.25
94,76.98476343223737,779.375,3.4041947163267063,0.0,0.0,2.5
95,118.22660098522168,507.5,212.5,,,212.5
96,151.8987341772152,395.0,4.018187817080398,0.0,0.0,2.5
97,158.8785046728972,377.6470588235294,167.66228001076541,1.0,1.0,37.5
98,91.50991357397052,655.6666666666666,2.6562295750848715,0.0,0.0,0.0
99,75.09386733416771,799.0,112.59551500836967,0.5,0.25,30.0
100,55.749128919860624,1076.25,20.463381929681123,0.7142857142857143,0.0,11.25
101,79.55801104972376,754.1666666666666,17.775607506417952,0.09090909090909091,0.0,15.0
102,88.23529411764706,680.0,9.063269671749657,0.0,0.0,5.0
103,55.99300087489064,1071.5625,71.29316126915681,0.8571428571428571,0.5714285714285714,63.75
104,57.65765765765766,1040.625,36.69447335771424,0.7142857142857143,0.2857142857142857,38.75
105,64.82982171799027,925.5,7.22841614740048,0.0,0.0,5.0
106,97.00889248181083,618.5,11.575836902790225,0.0,0.0,10.0
107,74.62106490478041,804.0625,67.15115295920093,0.8333333333333334,0.5,32.5
108,45.48325963360707,1319.1666666666667,28.783193398617573,1.0,0.6,26.25
109,104.83619344773791,572.3214285714286,114.78809780617146,1.0,0.9230769230769231,62.5
110,71.89542483660131,834.5454545454545,55.56341771732326,0.5,0.5,35.0
111,81.63265306122449,735.0,19.525624189766635,0.2727272727272727,0.0,13.75
112,66.46358349487677,902.75,52.00300472088127,0.7777777777777778,0.5555555555555556,30.0
113,81.37892059903928,737.2916666666666,52.04623678892538,0.6363636363636364,0.18181818181818182,35.0
114,71.17821515233216,842.9545454545455,49.184464724625535,0.4,0.1,10.0
115,66.39004149377594,903.75,16.25,0.1111111111111111,0.0,5.0
116,57.502246181491465,1043.4375,14.68084955818296,0.42857142857142855,0.0,10.0
117,76.05877268798616,788.8636363636364,5.368641732280781,0.0,0.0,5.0
118,55.331412103746395,1084.375,8.454843286542927,0.14285714285714285,0.0,6.25
119,57.07491082045184,1051.25,28.228974476590537,0.5714285714285714,0.0,18.75
120,89.1483152029716,673.0357142857143,77.02144049495807,0.3076923076923077,0.3076923076923077,1.25
121,79.55801104972376,754.1666666666666,100.49011836438889,0.9090909090909091,0.9090909090909091,102.5
122,55.475296157180004,1081.5625,17.80701669988547,0.2857142857142857,0.0,15.0
123,68.68918145392101,873.5,11.022703842524301,0.1111111111111111,0.0,8.75
124,79.09914858555342,758.5416666666666,59.04146083238644,0.7272727272727273,0.45454545454545453,27.5
125,86.28318584070797,695.3846153846154,11.344524002886635,0.0,0.0,10.0
126,50.13428827215757,1196.7857142857142,9.609731462195509,0.16666666666666666,0.0,10.0
127,67.01830592615575,895.2777777777778,6.060395619242064,0.0,0.0,2.5
128,75.74960547080484,792.0833333333334,89.98167251662356,0.9090909090909091,0.7272727272727273,72.5
129,64.034151547492,937.0,11.224972160321824,0.1111111111111111,0.0,11.25
130,68.09890555330361,881.0714285714286,14.44553458296906,0.0,0.0,12.5
131,,,,,,
132,63.77325066430469,940.8333333333334,80.45875409867537,0.75,0.5,77.5
133,103.75574169143475,578.28125,4.394487847007885,0.0,0.0,3.75
134,68.72852233676976,873.0,41.182520563948,0.3333333333333333,0.1111111111111111,11.25
135,52.76174773289365,1137.1875,14.547202265384227,0.42857142857142855,0.0,13.75
136,69.24408540103866,866.5,33.544746235439014,0.8888888888888888,0.4444444444444444,26.25
137,43.90243902439024,1366.6666666666667,2.357022603955158,0.0,0.0,1.25
138,75.53648068669527,794.3181818181819,12.064735854533634,0.4,0.0,5.0
139,71.13218731475993,843.5,39.76807765029635,0.6666666666666666,0.2222222222222222,18.75
140,89.60000000000001,669.6428571428571,19.68177961922122,0.15384615384615385,0.0,11.25
141,87.12650097738062,688.6538461538462,13.10517310569294,0.08333333333333333,0.0,5.0
142,111.83018379497798,536.5277777777778,3.2423937583135425,0.0,0.0,2.5
143,60.64008983717013,989.4444444444445,2.8327886186626583,0.0,0.0,2.5
144,72.46774636288772,827.9545454545455,7.21568539381252,0.0,0.0,5.0
145,64.01707121899173,937.25,8.474225628339147,0.0,0.0,5.0
146,51.06382978723404,1175.0,103.94023007753749,1.0,0.6666666666666666,30.0
147,63.1578947368421,950.0,19.364916731037084,0.25,0.125,10.0
148,103.67170626349892,578.75,8.660254037844387,0.0,0.0,5.0
149,68.23997725334091,879.25,17.64404998859389,0.3333333333333333,0.0,11.25
150,74.70817120622569,803.125,21.26531311000773,0.36363636363636365,0.0,13.75
151,100.50251256281408,597.0,6.4031242374328485,0.0,0.0,5.0
152,77.96810395747195,769.5454545454545,14.802417716303436,0.1,0.0,7.5
153,57.17310746426681,1049.4444444444443,31.308895119123047,0.125,0.0,32.5
154,,,,,,
155,76.10262323436149,788.4090909090909,10.513666823836708,0.3,0.0,7.5
156,55.379290452841076,1083.4375,41.07800316166792,0.7142857142857143,0.14285714285714285,13.75
157,83.57889097240826,717.8846153846154,58.41534105871435,0.75,0.5,30.0
158,51.86385737439222,1156.875,15.799030824705673,0.7142857142857143,0.0,7.5
159,42.97224709042077,1396.25,151.8822872051467,0.8,0.8,60.0
160,61.276595744680854,979.1666666666666,31.091263510296034,0.375,0.0,20.0
161,163.26530612244898,367.5,149.46700176087234,1.0,1.0,128.75
162,72.74731330945164,824.7727272727273,40.58457142827221,0.7,0.2,25.0
163,75.6832515767344,792.7777777777778,99.80150052064769,1.0,1.0,95.0
164,79.29515418502203,756.6666666666666,17.638342073763937,0.14285714285714285,0.14285714285714285,2.5
165,41.1663807890223,1457.5,20.766559657295186,0.6,0.2,12.5
166,148.14814814814815,405.0,56.8257570707744,,,10.0
167,71.02502017756255,844.7727272727273,23.170674683514424,0.1,0.0,20.0
168,70.08229360233608,856.1363636363636,24.08233123445383,0.2,0.0,12.5
169,73.23162274618585,819.3181818181819,43.19736562215588,0.7,0.4,22.5
170,69.54689146469968,862.7272727272727,3.2777738867854445,0.0,0.0,2.5
171,142.0483787956768,422.39130434782606,157.68791112729593,1.0,1.0,80.0
172,48.42894205823004,1238.9285714285713,27.086407465512202,0.6666666666666666,0.16666666666666666,17.5
173,75.68988173455979,792.7083333333334,29.18080014705255,0.18181818181818182,0.0,25.0
174,162.7780792186652,368.6,115.67644531191299,1.0,1.0,15.0
175,100.31347962382445,598.125,184.47031434623838,0.75,0.75,140.0
176,82.66360505166475,725.8333333333334,95.49396432352268,0.6363636363636364,0.6363636363636364,21.25
177,68.31767719897523,878.25,18.975312909145924,0.2222222222222222,0.0,15.0
178,72.64722069345075,825.9090909090909,37.023836413990345,0.4,0.1,32.5
179,68.18181818181819,880.0,14.577379737113251,0.2222222222222222,0.0,7.5
180,75.51487414187643,794.5454545454545,10.48907341746757,0.3,0.0,7.5
181,59.68499585520862,1005.2777777777778,24.04984535768152,0.375,0.0,12.5
182,69.06474820143885,868.75,15.502015997927495,0.2222222222222222,0.0,12.5
183,85.01362397820164,705.7692307692307,123.15322154264322,0.8333333333333334,0.5833333333333334,42.5
184,81.75182481751824,733.9285714285714,143.12118455835864,1.0,1.0,55.0
185,73.94957983193277,811.3636363636364,3.261977294183483,0.0,0.0,0.0
186,80.78541374474052,742.7083333333334,16.119938912897762,0.09090909090909091,0.0,15.0
187,71.25506072874494,842.0454545454545,8.035304331665312,0.1,0.0,5.0
188,72.98866463920376,822.0454545454545,12.694763676153583,0.0,0.0,7.5
189,69.66618287373004,861.25,8.605957239029253,0.0,0.0,7.5
190,61.6262482168331,973.6111111111111,6.136311676215145,0.0,0.0,2.5
191,,,,,,
192,52.84888521882741,1135.3125,51.68168044626645,0.42857142857142855,0.2857142857142857,13.75
193,66.56394453004623,901.3888888888889,10.743933114340955,0.0,0.0,7.5
194,50.19420376456528,1195.357142857143,30.95009149041899,0.8333333333333334,0.16666666666666666,15.0
195,45.31151667715544,1324.1666666666667,17.775607506417952,0.6,0.0,13.75
196,156.57620041753654,383.2,128.31702926735795,1.0,1.0,30.0
197,54.638588503130336,1098.125,33.92892387034991,0.5714285714285714,0.14285714285714285,23.75
198,67.13286713286713,893.75,35.30669200024268,0.4444444444444444,0.0,30.0
199,58.55245323936026,1024.7222222222222,27.32124845763735,0.0,0.0,30.0
200,74.47633824670287,805.625,40.62179474534986,0.2727272727272727,0.0,41.25
201,89.83957219251336,667.8571428571429,5.416339602893965,0.0,0.0,3.75
202,52.980132450331126,1132.5,24.044230077089182,0.7142857142857143,0.0,12.5
203,74.53416149068323,805.0,5.222329678670935,0.0,0.0,5.0
204,183.3810888252149,327.1875,228.28996603826022,1.0,0.75,88.75
205,96.54062751407884,621.5,115.39714034585086,0.8571428571428571,0.7857142857142857,102.5
206,72.09175314036047,832.2727272727273,15.610840691885816,0.0,0.0,12.5
207,123.9989666752777,483.875,2.011684617428885,0.0,0.0,2.5
208,70.94866971244289,845.6818181818181,15.154166434699682,0.1,0.0,7.5
209,68.82707198164611,871.75,39.718541010465124,0.6666666666666666,0.0,28.75
210,98.1728933733297,611.1666666666666,8.79709548026443,0.0,0.0,7.5
211,77.78177889809146,771.3888888888889,84.23768547580701,0.875,0.375,57.5
212,77.60141093474428,773.1818181818181,10.557790590306304,0.1,0.0,5.0
213,177.99752781211373,337.0833333333333,188.78954699759083,1.0,1.0,192.5
214,81.67895632444696,734.5833333333334,10.54915741764347,0.0,0.0,8.75
215,78.02763478732051,768.9583333333334,12.560616912485717,0.0,0.0,8.75
216,59.50413223140496,1008.3333333333334,17.75606312721876,0.25,0.0,15.000000000000114
217,103.75789823744597,578.2692307692307,40.69568838654087,0.09090909090909091,0.09090909090909091,2.5
218,66.70372429127293,899.5,24.23324163210527,0.3333333333333333,0.0,20.0
219,71.83673469387755,835.2272727272727,6.695872664843743,0.0,0.0,5.0
220,65.83358732093873,911.3888888888889,176.59240228053378,1.0,1.0,187.5
221,92.6939169616994,647.2916666666666,110.74303182242313,0.7,0.6,85.0
222,72.05240174672488,832.7272727272727,11.101522492563468,0.0,0.0,7.5
223,70.09345794392523,856.0,70.20683727387241,0.4444444444444444,0.3333333333333333,31.25
224,63.88642413487134,939.1666666666666,24.352731993670762,0.5,0.125,10.0
225,83.73590982286635,716.5384615384615,10.494433576647888,0.16666666666666666,0.0,10.0
226,64.27423674343868,933.5,13.793114224133722,0.3333333333333333,0.0,5.0
227,104.9671977507029,571.6071428571429,14.503913968586662,0.0,0.0,11.25
228,79.03402854006586,759.1666666666666,3.8640077064565435,0.0,0.0,1.25
229,78.29181494661921,766.3636363636364,14.395534201921013,0.5,0.0,5.0
230,55.55555555555556,1080.0,28.034576865007256,0.8571428571428571,0.14285714285714285,25.0
231,163.57440363498677,366.80555555555554,196.1501082567527,1.0,1.0,155.0
232,63.50886477904208,944.75,40.17850793645777,0.7777777777777778,0.2222222222222222,35.0
233,82.47422680412372,727.5,11.888908858518255,0.0,0.0,7.5
234,124.70023980815348,481.15384615384613,188.03542880321012,1.0,1.0,105.0
235,73.86681589255736,812.2727272727273,17.78835629940863,0.0,0.0,20.0
236,79.66804979253112,753.125,16.524130083002856,0.0,0.0,5.0
237,127.38853503184713,471.0,215.7328594968014,1.0,1.0,10.0
238,64.43914081145584,931.1111111111111,33.770284256509186,0.375,0.125,37.5
239,121.50279776179056,493.8157894736842,5.813347903782761,0.05555555555555555,0.0,2.5
240,80.0,750.0,80.3054066257891,0.2727272727272727,0.2727272727272727,17.5
241,73.02904564315352,821.5909090909091,14.43137078762504,0.0,0.0,7.5
242,143.67516918271733,417.60869565217394,189.0716425362147,0.9545454545454546,0.9545454545454546,90.0
243,70.55050774986638,850.4545454545455,20.108178509631514,0.3,0.0,17.5
244,78.64554888039324,762.9166666666666,7.276770498572075,0.0,0.0,5.0
245,64.01896858328394,937.2222222222222,18.04486863212413,0.375,0.0,15.0
246,68.20119352088662,879.75,34.75719350005118,0.4444444444444444,0.1111111111111111,31.25
247,120.10008340283571,499.5833333333333,134.99549889615662,0.6666666666666666,0.6666666666666666,7.5
248,123.36160370084811,486.375,66.46650942391965,0.8421052631578947,0.631578947368421,36.24999999999997
249,51.036682615629985,1175.625,41.847005567901746,0.7142857142857143,0.14285714285714285,28.75
250,69.29133858267717,865.9090909090909,59.11537954858747,0.3,0.1,22.5
251,68.99383983572895,869.6428571428571,23.277386766857607,0.4,0.0,22.5
252,80.61807188444743,744.25,89.1070283423255,0.5,0.25,13.75
253,85.03937007874016,705.5555555555555,220.18230381567963,1.0,1.0,215.0
254,55.526992287917736,1080.5555555555557,13.528661846539912,0.25,0.0,15.0
255,101.10584518167457,593.4375,27.010920823807545,0.13333333333333333,0.0,15.0
256,163.6629322942036,366.60714285714283,197.78371832558383,1.0,1.0,188.74999999999997
257,67.2834314550042,891.75,17.890290662814845,0.1111111111111111,0.0,13.75
258,67.96941376380629,882.75,10.807983160608643,0.3333333333333333,0.0,8.75
259,103.6889332003988,578.6538461538462,9.02003030735275,0.09090909090909091,0.0,2.5
260,73.86681589255736,812.2727272727273,15.537876941033828,0.3,0.0,10.0
261,58.50487540628385,1025.5555555555557,16.864565818511732,0.25,0.0,17.5
262,106.37119113573407,564.0625,106.93848626079388,0.9333333333333333,0.6666666666666666,60.0
263,90.81081081081082,660.7142857142857,20.407206610230933,0.23076923076923078,0.15384615384615385,5.0
264,143.08943089430895,419.3181818181818,179.13805909095933,1.0,1.0,175.0
265,67.49156355455568,889.0,8.381527307120106,0.0,0.0,1.25
266,56.63345568956477,1059.4444444444443,66.05740115167701,0.625,0.375,42.5
267,69.58538706871558,862.25,11.149551560488879,0.0,0.0,6.25
268,56.24999999999999,1066.6666666666667,138.18767431769498,0.875,0.625,32.5
269,83.668543845535,717.1153846153846,8.01717830218301,0.0,0.0,5.0
270,87.70764119601328,684.0909090909091,104.21935306707199,0.4444444444444444,0.4444444444444444,20.0
271,68.25232678386763,879.0909090909091,2.6698500282888022,0.0,0.0,0.0
272,52.459016393442624,1143.75,31.14983948594278,0.42857142857142855,0.42857142857142855,23.75
273,82.9971181556196,722.9166666666666,16.64060462309655,0.09090909090909091,0.0,10.0
274,84.75957620211899,707.8846153846154,5.704768066996663,0.0,0.0,2.5
275,74.1885625965997,808.75,13.090231727004173,0.18181818181818182,0.0,10.0
276,70.08229360233608,856.1363636363636,17.1014232649201,0.4,0.0,10.0
277,82.16364258815474,730.25,37.42408983529192,0.25,0.125,36.25
278,96.17953513224685,623.8333333333334,3.5197853469904796,0.0,0.0,2.5
279,67.41573033707866,890.0,23.788843832962772,0.1,0.0,17.5
280,66.815144766147,898.0,49.73429400323282,0.5555555555555556,0.2222222222222222,38.75
281,113.80400421496313,527.2222222222222,231.62752800216788,1.0,1.0,227.5
282,69.27315665179744,866.1363636363636,10.942184652009749,0.1,0.0,7.5
283,90.73724007561437,661.25,14.600330231098983,0.0,0.0,13.75
284,56.888888888888886,1054.6875,25.50850042142815,0.5714285714285714,0.2857142857142857,22.5
285,62.608695652173914,958.3333333333334,10.137937550497032,0.0,0.0,5.0
286,65.08474576271186,921.875,19.95111212439046,0.0,0.0,10.0
287,,,,,,
288,103.20873304664241,581.3461538461538,55.85537114017863,0.5833333333333334,0.3333333333333333,10.0
289,107.2066706372841,559.6666666666666,118.62007512315199,0.35714285714285715,0.2857142857142857,20.0
290,42.50295159386068,1411.6666666666667,104.82790129010925,1.0,1.0,90.0
291,72.58729722298598,826.5909090909091,22.67038334461364,0.1,0.0,7.5
292,71.13985448666128,843.4090909090909,16.3510052260045,0.3,0.0,10.0
293,68.80733944954129,872.0,27.56356290467544,0.4444444444444444,0.1111111111111111,12.5
294,192.81183932346724,311.1842105263158,123.6063584770447,1.0,1.0,10.0
295,51.036682615629985,1175.625,36.13667631368441,0.7142857142857143,0.2857142857142857,27.5
296,78.06993765248035,768.5416666666666,78.46481651387171,0.7272727272727273,0.36363636363636365,55.0
297,50.450450450450454,1189.2857142857142,110.40278760160037,1.0,0.5,25.0
298,81.58640226628896,735.4166666666666,13.800412634732663,0.0,0.0,11.25
299,187.19211822660097,320.5263157894737,183.67874369786668,1.0,1.0,147.5
300,79.55801104972376,754.1666666666666,6.481812160876686,0.0,0.0,3.75
301,127.89768185451639,469.125,2.7698149757700423,0.0,0.0,2.5
302,61.679040548258136,972.7777777777778,14.114828906569445,0.25,0.0,10.0
303,124.35233160621762,482.5,162.28832367117482,,,97.5
304,71.54471544715447,838.6363636363636,12.896600871919189,0.1,0.0,7.5
305,119.91434689507496,500.35714285714283,268.1764763154658,1.0,1.0,5.0
306,121.21212121212122,495.0,239.6090565901047,1.0,1.0,201.25
307,67.73920406435225,885.75,6.8053287944081,0.0,0.0,6.25
308,62.66318537859008,957.5,23.422448870925326,0.75,0.0,22.5
309,71.28007128007128,841.75,26.950185528118354,0.3333333333333333,0.0,28.75
310,127.79552715654953,469.5,200.51433863941003,1.0,1.0,162.5
311,64.72879832184597,926.9444444444445,39.734846478769214,0.625,0.0,37.5
312,73.10994184436444,820.6818181818181,17.323490000145004,0.4,0.0,10.0
313,93.62808842652795,640.8333333333334,166.94352005660147,1.0,1.0,136.25
314,88.46044797278141,678.2692307692307,20.71752823894204,0.5833333333333334,0.08333333333333333,12.5
315,89.3189430591738,671.75,83.02145806958585,0.8888888888888888,0.3333333333333333,72.5
316,70.44320516583504,851.75,10.609547586961472,0.0,0.0,3.75
317,59.37328202308961,1010.5555555555555,29.5046554183916,0.25,0.0,10.0
318,69.62576153176676,861.75,25.447249360196086,0.6666666666666666,0.0,13.75
319,70.23144453312051,854.3181818181819,44.633493705182644,0.7,0.2,32.5
320,76.19047619047619,787.5,28.885550020728356,1.0,1.0,27.5
321,74.90247074122237,801.0416666666666,15.527473411845069,0.36363636363636365,0.0,6.25
322,60.94808126410835,984.4444444444445,15.490937215109609,0.0,0.0,10.0
323,413.7931034482759,145.0,105.8831903561656,1.0,1.0,11.25
324,76.53467977677384,783.9583333333334,38.34408816522075,0.2727272727272727,0.09090909090909091,30.0
325,108.35214446952595,553.75,271.34215024577367,1.0,1.0,262.5
326,59.4222833562586,1009.7222222222222,12.771737702858488,0.25,0.0,5.000000000000114
327,70.81545064377683,847.2727272727273,14.120204151826425,0.2,0.1,2.5
328,56.13305613305613,1068.888888888889,20.38215147538238,0.375,0.0,15.0
329,63.047285464098074,951.6666666666666,61.44102863722252,0.5,0.375,45.0
330,61.32879045996592,978.3333333333334,16.3299316185545,0.375,0.0,12.5
331,53.14143371159701,1129.0625,68.69244750152671,0.7142857142857143,0.14285714285714285,37.5
332,63.6604774535809,942.5,15.411035007422441,0.25,0.0,12.5
333,78.81773399014779,761.25,10.728660991319778,0.0,0.0,3.75
334,87.18214841722886,688.2142857142857,58.051920814078855,0.07692307692307693,0.07692307692307693,5.0
335,77.36389684813754,775.5555555555555,43.60137895656031,0.7142857142857143,0.5714285714285714,22.5
336,173.6842105263158,345.45454545454544,99.90517198038224,1.0,1.0,67.5
337,67.02038536721587,895.25,12.422258248804845,0.1111111111111111,0.0,5.0
338,63.12098188194039,950.5555555555555,14.803236216082475,0.5,0.0,12.5
339,82.5451418744626,726.875,24.26256117972709,0.0,0.0,2.5
340,84.82871125611746,707.3076923076923,7.872880573253354,0.0,0.0,7.5
341,66.85236768802228,897.5,6.98212002188447,0.0,0.0,7.5
342,45.354330708661415,1322.9166666666667,30.049149553504652,0.4,0.2,21.25
343,89.40926024481107,671.0714285714286,66.88686000117158,0.7692307692307693,0.46153846153846156,27.5
344,65.66347469220246,913.75,8.15858443604036,0.1111111111111111,0.0,5.0
345,72.17058501913614,831.3636363636364,95.40799730847107,0.6,0.6,82.5
346,156.45371577574969,383.5,189.87232552428486,1.0,0.9375,210.0
347,85.1063829787234,705.0,10.651832633943254,0.0,0.0,5.0
348,50.63291139240506,1185.0,21.29721645125082,0.3333333333333333,0.0,12.5
349,129.49640287769785,463.3333333333333,239.84659449091387,1.0,1.0,2.5
350,134.04255319148936,447.6190476190476,68.42390712141216,0.7,0.5,25.0
351,65.1780325890163,920.5555555555555,109.11116768498194,0.875,0.875,80.0
352,51.502145922746784,1165.0,64.43435197381685,1.0,0.8333333333333334,62.5
353,74.51312447078746,805.2272727272727,2.7082671108665872,0.0,0.0,2.5
354,76.45341120254845,784.7916666666666,19.644187364770836,0.6363636363636364,0.0,16.25
355,69.26406926406926,866.25,8.081614937622307,0.0,0.0,7.5
356,96.80021511158913,619.8333333333334,4.515405728048022,0.0,0.0,2.5
357,65.61360874848117,914.4444444444445,15.976448716164894,0.125,0.0,17.5
358,124.9024199843872,480.375,228.06560870723143,1.0,1.0,221.25
359,73.41490545050056,817.2727272727273,9.620913858416692,0.1,0.0,5.0
360,95.06205439662003,631.1666666666666,123.67587566790147,0.8571428571428571,0.7857142857142857,67.5
361,69.28406466512702,866.0,38.636122993903,0.5555555555555556,0.3333333333333333,23.75
362,97.42895805142084,615.8333333333334,44.10845220086005,0.21428571428571427,0.21428571428571427,2.5
363,70.7395498392283,848.1818181818181,10.875896467277636,0.0,0.0,7.5
364,64.75984889368591,926.5,28.85740806101615,0.3333333333333333,0.2222222222222222,5.0
365,51.69628432956381,1160.625,39.975578482368455,0.14285714285714285,0.14285714285714285,17.5
366,79.31699256403195,756.4583333333334,33.54813602207365,1.0,0.7272727272727273,38.75
367,60.23424428332404,996.1111111111111,26.170146029586398,0.375,0.125,22.5
368,135.74660633484163,442.0,174.3946673496641,1.0,1.0,165.0
369,61.41597952800682,976.9444444444445,16.27787258220401,0.125,0.0,12.5
370,96.93053311793214,619.0,3.13581462037113,0.0,0.0,2.5
371,63.38028169014085,946.6666666666666,8.897565210026093,0.125,0.0,5.0
372,53.81165919282511,1115.0,14.306903927824496,0.14285714285714285,0.0,13.75
373,141.06331819396206,425.34090909090907,171.1447012939394,1.0,1.0,86.25
374,81.84679958027282,733.0769230769231,7.2823447033698026,0.0,0.0,5.0
375,222.9965156794425,269.0625,169.60863729111793,1.0,1.0,67.5
376,121.92513368983957,492.10526315789474,0.911605688194146,0.0,0.0,0.0
377,52.33644859813084,1146.4285714285713,145.95655629854596,1.0,0.8333333333333334,60.0
378,85.90308370044053,698.4615384615385,6.901676324971677,0.0,0.0,5.0
379,71.19741100323624,842.7272727272727,18.963318222730138,0.1,0.1,7.5
380,89.60000000000001,669.6428571428571,1.8557687223952257,0.0,0.0,2.5
381,,,,,,
382,78.47411444141689,764.5833333333334,5.480394349152461,0.0,0.0,5.0
383,82.78240873814315,724.7916666666666,8.806858911603438,0.0,0.0,6.25
384,196.04471195184868,306.05263157894734,187.65399954625633,0.6875,0.5625,137.5
385,69.69376979936642,860.9090909090909,74.12575867519708,0.7,0.1,80.0
386,125.94293210888816,476.40625,206.86644383741287,1.0,1.0,40.0
387,75.17084282460137,798.1818181818181,30.65739768894045,0.8,0.2,27.5
388,68.1044267877412,881.0,26.320144376503713,0.2222222222222222,0.0,23.75
389,75.5608028335301,794.0625,197.85939412560123,0.8333333333333334,0.5,168.75
390,68.3371298405467,878.0,138.07063409718955,1.0,0.8888888888888888,90.0
391,104.68920392584515,573.125,16.66536453246673,0.13333333333333333,0.0,13.75
392,75.97122302158273,789.7727272727273,25.727031800992048,0.2,0.0,12.5
393,61.36363636363636,977.7777777777778,24.705050215954607,0.625,0.125,12.499999999999886
394,52.94673810274188,1133.2142857142858,72.33002594401043,1.0,0.3333333333333333,52.5
395,53.85694249649369,1114.0625,14.083317924054686,0.0,0.0,8.75
396,76.82048546279007,781.0416666666666,8.06602528441914,0.0,0.0,6.25
397,64.89994591671173,924.5,17.09532099727876,0.2222222222222222,0.0,12.5
398,54.763262977752426,1095.625,25.792137852454186,0.7142857142857143,0.0,16.25
399,141.79296172617518,423.1521739130435,183.35226458938735,1.0,1.0,75.0
400,136.01236476043277,441.1363636363636,191.059734936615,1.0,1.0,183.75
401,58.859595340282034,1019.375,17.57795138803154,0.0,0.0,13.75
402,158.94039735099338,377.5,138.13399291991817,1.0,1.0,52.5
403,67.58659532526049,887.75,58.271455276147,0.7777777777777778,0.1111111111111111,43.75
404,73.64016736401673,814.7727272727273,21.70186799287484,0.4,0.0,12.5
405,82.35630540463255,728.5416666666666,22.80940808574879,0.0,0.0,22.5
406,75.0,800.0,13.501543121683042,0.0,0.0,8.75
407,84.09703504043127,713.4615384615385,11.910663513232326,0.0,0.0,10.0
408,87.22393066815768,687.8846153846154,8.01717830218301,0.0,0.0,5.0
409,117.33734486649115,511.34615384615387,256.1148618983426,1.0,1.0,7.5
410,56.64830841856805,1059.1666666666667,11.242281302693367,,,2.5
411,66.24344465912228,905.75,14.665009376062464,0.2222222222222222,0.0,13.75
412,68.34066787470877,877.9545454545455,32.295126669693836,0.5,0.1,30.0
413,64.6900269541779,927.5,49.40900727600181,0.6666666666666666,0.4444444444444444,42.5
414,61.12054329371817,981.6666666666666,51.89465825646755,1.0,0.5,42.5
415,75.57071634741537,793.9583333333334,85.56465838118497,1.0,1.0,85.0
416,56.38214565387627,1064.1666666666667,22.26731535981234,0.25,0.0,12.5
417,62.17616580310881,965.0,21.213203435596427,0.625,0.125,25.0
418,82.66360505166475,725.8333333333334,12.638125740085917,0.09090909090909091,0.0,7.5
419,128.61736334405145,466.5,110.59328641468251,0.7894736842105263,0.631578947368421,80.0
420,76.52173913043478,784.0909090909091,10.295228775369205,0.0,0.0,5.0
421,69.9504517633343,857.75,8.835298523536146,0.1111111111111111,0.0,5.0
422,114.01425178147268,526.25,198.48252441965766,1.0,1.0,60.0
423,76.43312101910828,785.0,44.402600251459475,0.7,0.4,17.5
424,97.21847150958683,617.1666666666666,55.044426501589506,0.07142857142857142,0.07142857142857142,2.5
425,164.4774414620217,364.7916666666667,112.93415454984772,0.9545454545454546,0.9545454545454546,111.25
426,82.36536430834214,728.4615384615385,10.765796155598773,0.16666666666666666,0.0,7.5
427,63.93180607352158,938.5,49.78955713801841,0.4444444444444444,0.4444444444444444,17.5
428,99.32747025349198,604.0625,133.83430462235756,0.8666666666666667,0.7333333333333333,87.5
429,204.25531914893617,293.75,160.4485898972004,0.6666666666666666,0.6666666666666666,103.75
430,125.62156503533106,477.625,185.26244054043983,1.0,1.0,177.5
431,89.0302066772655,673.9285714285714,87.68202640850656,0.9230769230769231,0.6923076923076923,65.0
432,64.61262339216273,928.6111111111111,13.44283736951429,0.25,0.0,12.5
433,138.34751578369475,433.6904761904762,147.3367115689899,1.0,1.0,7.5
434,62.59780907668232,958.5,25.64663720646432,0.5555555555555556,0.2222222222222222,25.0
435,247.21030042918454,242.70833333333334,183.53433583543858,0.7142857142857143,0.7142857142857143,138.75
436,52.863436123348016,1135.0,32.84161123592185,0.6666666666666666,0.3333333333333333,15.0
437,78.26086956521739,766.6666666666666,10.76903998610007,0.2,0.0,8.75
438,62.28373702422145,963.3333333333334,4.08248290463863,0.0,0.0,5.0
439,94.66210886142518,633.8333333333334,7.7387911774959335,0.0,0.0,2.5
440,91.75314036045876,653.9285714285714,6.925256939166184,0.0,0.0,5.0
441,70.94866971244289,845.6818181818181,30.37812664586802,0.6,0.1,20.0
442,169.8685540950455,353.2142857142857,218.3353455793443,1.0,1.0,222.5
443,63.047285464098074,951.6666666666666,22.699730786460393,0.5,0.0,15.0
444,72.11144496039334,832.0454545454545,39.712291745786715,0.5,0.1,20.0
445,64.22263848006422,934.25,25.837230888777537,0.2222222222222222,0.0,21.25
446,88.7877063175868,675.7692307692307,115.38557691907054,0.75,0.6666666666666666,82.5
447,53.66126327557295,1118.125,25.761829806906185,0.42857142857142855,0.14285714285714285,10.0
448,74.19898819561551,808.6363636363636,17.299620212713695,0.0,0.0,15.0
449,74.21984818667417,808.4090909090909,16.99841995574105,0.1,0.0,7.5
450,103.1703385276733,581.5625,1.7399263633843818,0.0,0.0,1.25
451,68.9835380193363,869.7727272727273,62.390399770085416,0.8,0.5,45.0
452,90.34686743748318,664.1071428571429,75.89705870722635,0.6923076923076923,0.6923076923076923,51.25
453,65.59169171904892,914.75,48.67558422864588,0.5555555555555556,0.2222222222222222,42.5
454,64.74820143884892,926.6666666666666,51.221197868764364,0.5,0.375,57.5
455,100.32512772875059,598.0555555555555,164.85590415815403,0.6666666666666666,0.3333333333333333,37.5
456,83.88675288360713,715.25,91.74318775800195,1.0,0.75,81.25
457,46.06525911708253,1302.5,11.814539065631521,0.2,0.0,3.75
458,138.0897583429229,434.5,218.43420061885914,1.0,1.0,92.5
459,90.27404621171414,664.6428571428571,16.335138037184674,0.07692307692307693,0.0,15.0
460,69.04487917146145,869.0,8.231038816577165,0.0,0.0,5.0
461,81.54020385050963,735.8333333333334,21.41682879316066,0.2727272727272727,0.0,22.5
462,60.776589758019135,987.2222222222222,17.338318371474692,0.375,0.0,12.5
463,79.18416316736652,757.7272727272727,156.76217708774416,0.6,0.5,57.5
464,98.46153846153847,609.375,1.875,0.0,0.0,2.5
465,68.04649844060108,881.75,39.32318018675499,0.7777777777777778,0.1111111111111111,27.5
466,85.61236623067776,700.8333333333334,9.789450103725608,0.0,0.0,5.0
467,58.4731997834326,1026.111111111111,17.284832429004474,0.375,0.125,12.499999999999886
468,122.67958030669895,489.07894736842104,212.53824814655775,1.0,1.0,115.0
469,84.80565371024736,707.5,9.250779592927456,0.0,0.0,5.0
470,53.63128491620112,1118.75,14.086784586980807,0.2857142857142857,0.0,12.5
471,53.316407489685815,1125.357142857143,156.10452411438817,1.0,0.8333333333333334,40.0
472,82.47422680412372,727.5,24.09915415049314,0.4166666666666667,0.0,15.0
473,109.85460420032311,546.1764705882352,135.6523390635989,0.875,0.75,60.0
474,73.55809417665088,815.6818181818181,8.600403603829319,0.0,0.0,7.5
475,83.37787279529662,719.6153846153846,22.14128917634501,0.16666666666666666,0.0,15.0
476,110.09174311926606,545.0,34.43996386628638,0.17647058823529413,0.17647058823529413,3.75
477,80.37957019257605,746.4583333333334,48.384940121442284,0.45454545454545453,0.2727272727272727,35.0
478,76.59574468085106,783.3333333333334,5.237418787490223,0.0,0.0,2.5
479,64.44683136412459,931.0,149.052004347476,1.0,1.0,123.75
480,70.82257469568425,847.1875,40.91602490162015,0.16666666666666666,0.0,12.5
481,79.05572330496842,758.9583333333334,26.760090256864896,0.18181818181818182,0.0,18.75
482,79.49213359094674,754.7916666666666,14.23238433604464,0.09090909090909091,0.0,12.5
483,92.71523178807948,647.1428571428571,3.253726278265821,0.0,0.0,2.5
484,75.66204287515762,793.0,109.32062934323055,0.7777777777777778,0.6666666666666666,71.25
485,118.59557867360208,505.92105263157896,3.6464227527765924,0.0,0.0,2.500000000000057
486,97.82608695652173,613.3333333333334,22.705848487901864,0.35714285714285715,0.0,17.5
487,93.82329945269743,639.5,10.808946911393974,0.07142857142857142,0.0,10.0
488,93.28151027207107,643.2142857142857,29.038591493362194,0.46153846153846156,0.23076923076923078,10.0
489,114.68011680382267,523.1944444444445,109.50585206189882,0.9411764705882353,0.8823529411764706,98.75
490,79.38257993384785,755.8333333333334,7.592027982620249,0.0,0.0,5.0
491,48.24813325674899,1243.5714285714287,108.35504753600827,0.8333333333333334,0.3333333333333333,37.5
492,72.5673446948873,826.8181818181819,21.874926210029024,0.7,0.1,20.0
493,61.50341685649203,975.5555555555555,28.95825006649366,0.625,0.125,10.0
494,52.805280528052805,1136.25,99.28651721155295,1.0,1.0,53.75
495,68.47360912981455,876.25,9.826622003516773,0.0,0.0,5.0
496,71.00591715976331,845.0,18.76892983823871,0.3,0.0,5.0
497,101.18577075098814,592.96875,25.143630375057217,0.06666666666666667,0.06666666666666667,7.5
498,76.63650878126664,782.9166666666666,4.6584749531245615,0.0,0.0,3.75
499,97.50812567713976,615.3333333333334,7.951240294584374,0.0,0.0,7.5
500,81.1039143903126,739.7916666666666,11.878654408457026,0.0,0.0,10.0
501,57.65765765765766,1040.625,28.332567391607842,0.7142857142857143,0.2857142857142857,16.25
502,67.56756756756756,888.0,15.604486534327235,0.3333333333333333,0.0,11.25
503,79.65279550676539,753.2692307692307,53.19037484668971,0.08333333333333333,0.08333333333333333,10.0
504,69.9912510936133,857.25,35.81986180877866,0.5555555555555556,0.0,35.0
505,89.60000000000001,669.6428571428571,89.40706039782089,0.23076923076923078,0.23076923076923078,2.5
506,96.98275862068967,618.6666666666666,14.226344888582199,0.5,0.0,12.5
507,67.95366795366795,882.9545454545455,86.64726154867387,0.8,0.3,35.0
508,85.85580627407815,698.8461538461538,7.759323462243083,0.0,0.0,5.0
509,58.199454380115185,1030.9375,10.226917607470986,0.14285714285714285,0.0,7.5
510,63.45475910693302,945.5555555555555,28.95825006649366,0.5,0.125,27.5
511,52.103120759837175,1151.5625,17.497209598961774,0.42857142857142855,0.0,17.5
512,62.7906976744186,955.5555555555555,17.98061370298029,0.125,0.0,12.5
513,64.46414182111201,930.75,13.231118622399242,0.0,0.0,10.0
514,65.23511823865181,919.75,63.19068364877848,0.8888888888888888,0.4444444444444444,58.75
515,86.3070539419087,695.1923076923077,9.925759923510723,0.0,0.0,10.0
516,73.24516785350967,819.1666666666666,110.35296904831235,1.0,0.8571428571428571,60.0
517,59.275521405049396,1012.2222222222222,34.58974728563294,0.75,0.25,42.499999999999886
518,109.73641742872512,546.7647058823529,83.8098544056827,0.625,0.5625,45.00000000000006
519,66.66666666666667,900.0,18.096961070853858,0.2222222222222222,0.0,15.0
520,59.916782246879336,1001.3888888888889,24.66754252699259,0.75,0.0,20.0
521,64.4814615797958,930.5,10.04987562112089,0.1111111111111111,0.0,5.0
522,70.05253940455341,856.5,9.5,0.0,0.0,3.75
523,58.743540930106064,1021.3888888888889,17.484561090951345,0.5,0.0,15.0
524,49.54290769684459,1211.0714285714287,33.162401872590344,0.8333333333333334,0.3333333333333333,12.5
525,51.486362243334355,1165.357142857143,51.520255576752305,1.0,0.8333333333333334,45.0
526,68.4931506849315,876.0,13.0,0.0,0.0,11.25
527,74.91486946651533,800.9090909090909,26.161055530048493,0.2,0.0,25.0
528,52.430365920262155,1144.375,29.12124439305436,0.5714285714285714,0.14285714285714285,21.25
529,42.56577002660361,1409.5833333333333,38.71414111435539,0.8,0.2,40.0
530,78.57142857142857,763.6363636363636,27.538477964387233,0.5,0.2,20.0
531,76.10262323436149,788.4090909090909,6.42020313264797,0.0,0.0,5.0
532,83.04498269896193,722.5,3.5355339059327378,0.0,0.0,2.5
533,78.53831469866375,763.9583333333334,5.249834653480897,0.0,0.0,2.5
534,79.64601769911503,753.3333333333334,7.660323462854265,0.0,0.0,5.0
535,84.27876823338735,711.9230769230769,19.810492707193706,0.3333333333333333,0.0,15.0
536,54.888507718696395,1093.125,30.84107447868832,0.2857142857142857,0.2857142857142857,23.75
537,67.13286713286713,893.75,153.6849455867425,0.8888888888888888,0.7777777777777778,112.5
538,68.94570525711002,870.25,15.143067720907808,0.2222222222222222,0.0,8.75
539,92.18106995884774,650.8928571428571,3.8506890451513973,0.0,0.0,2.5
540,52.1901211556384,1149.642857142857,80.09401363652694,1.0,0.8333333333333334,87.5
541,57.233704292527825,1048.3333333333333,21.473497877875207,0.875,0.0,12.5
542,80.58198097369893,744.5833333333334,23.045094681708054,0.2727272727272727,0.0,16.25
543,75.0,800.0,101.41610953259483,0.6,0.3,22.5
544,109.89570083948105,545.9722222222222,6.131594459623365,0.0,0.0,5.0
545,80.39165163617625,746.3461538461538,86.11606314364903,0.16666666666666666,0.08333333333333333,35.0
546,68.18181818181819,880.0,156.13162182381035,0.25,0.25,12.5
547,141.4885777450258,424.0625,213.3455145854958,1.0,0.9285714285714286,128.75
548,78.26860361695819,766.5909090909091,14.032135491302848,0.1,0.0,12.5
549,186.45948945615982,321.7857142857143,188.32776465188428,1.0,1.0,2.5
550,130.037250253979,461.40625,140.07522741704722,1.0,1.0,26.25
551,73.94094993581514,811.4583333333334,213.72065669284808,1.0,1.0,73.75
552,76.15018508725542,787.9166666666666,21.28265464853689,0.09090909090909091,0.09090909090909091,3.75
553,83.48943002408349,718.6538461538462,24.70237034358679,0.16666666666666666,0.0,12.5
554,79.51408061844285,754.5833333333334,41.11509928102921,0.45454545454545453,0.09090909090909091,26.25
555,90.22556390977444,665.0,34.25221577816953,0.23076923076923078,0.23076923076923078,6.25
556,192.38476953907815,311.875,141.88876585198702,1.0,0.875,86.25
557,52.602739726027394,1140.625,17.488835724541527,0.42857142857142855,0.0,13.75
558,64.1025641025641,936.0,6.819090848492928,0.0,0.0,5.0
559,96.2052378407269,623.6666666666666,4.988876515698589,0.0,0.0,2.5
560,57.08245243128964,1051.111111111111,14.294089255854008,0.0,0.0,15.0
561,71.3320724128614,841.1363636363636,13.414867784885187,0.0,0.0,5.0
562,65.82556226001097,911.5,10.677078252031311,0.1111111111111111,0.0,10.0
563,80.40201005025126,746.25,36.13487465962303,0.2727272727272727,0.09090909090909091,30.0
564,114.36950146627565,524.6153846153846,1.6542933205851207,0.0,0.0,0.0
565,75.65011820330969,793.125,39.23918375382784,0.36363636363636365,0.18181818181818182,10.0
566,83.57889097240826,717.8846153846154,16.078119204675755,0.25,0.0,17.5
567,76.4774044032445,784.5454545454545,35.33634141777256,0.3,0.0,37.5
568,76.45525629887055,784.7727272727273,62.51776606997539,1.0,0.6,45.0
569,47.68663071246097,1258.2142857142858,147.1255190894732,0.3333333333333333,0.16666666666666666,10.0
570,69.58355297838693,862.2727272727273,51.85704284436188,0.6,0.2,22.5
571,68.04123711340206,881.8181818181819,71.80379602755653,0.6,0.3,52.5
572,67.49156355455568,889.0,42.10403781111736,0.3333333333333333,0.0,41.25
573,50.955414012738856,1177.5,36.635877224382114,0.8571428571428571,0.42857142857142855,21.25
574,79.16437603078614,757.9166666666666,32.92721350021725,0.5454545454545454,0.0,22.5
575,69.38239159001314,864.7727272727273,39.477475532006416,0.5,0.0,35.0
576,69.78772899098576,859.75,22.97961052759598,0.6666666666666666,0.0,18.75
577,71.83478000598623,835.25,10.335013304297194,0.0,0.0,5.0
578,,,,,,
579,60.625197347647614,989.6875,58.702607214245596,0.8333333333333334,0.8333333333333334,30.0
580,72.94832826747721,822.5,7.760623217710851,0.0,0.0,5.0
581,105.39912167398606,569.2647058823529,6.739081904346824,0.0,0.0,5.0
582,70.19409731454401,854.7727272727273,11.699579705667047,0.0,0.0,10.0
583,56.40423031727379,1063.75,20.039024427351748,0.2857142857142857,0.0,16.25
584,168.57440166493237,355.9259259259259,136.93596122273547,1.0,1.0,195.0
585,69.54689146469968,862.7272727272727,45.39541608635053,0.7,0.4,30.0
586,77.56531106921626,773.5416666666666,12.435597984102824,0.09090909090909091,0.0,6.25
587,64.67065868263472,927.7777777777778,15.654447559561522,0.625,0.0,5.0
588,67.73920406435225,885.75,25.813029655582856,0.1111111111111111,0.0,23.75
589,93.69771332961517,640.3571428571429,56.2111543872835,0.23076923076923078,0.23076923076923078,7.5
590,81.6557981287213,734.7916666666666,7.249880267210548,0.0,0.0,6.25
591,60.74240719910011,987.7777777777778,20.697706677996855,0.375,0.0,12.5
592,74.95741056218057,800.4545454545455,16.67940284718979,0.1,0.0,15.0
593,67.95016987542469,883.0,43.871972830042644,0.7777777777777778,0.4444444444444444,40.0
594,90.9090909090909,660.0,10.773645092141683,0.0,0.0,5.0
595,77.04654895666131,778.75,27.032002638847654,0.09090909090909091,0.0,20.0
596,,,,,,
597,187.60469011725294,319.82142857142856,191.30768104425553,1.0,1.0,118.75
598,62.4457935819601,960.8333333333334,10.540925533894598,0.0,0.0,10.0
599,68.5910260074307,874.75,31.552535555799633,0.5555555555555556,0.2222222222222222,25.0
600,75.61039642950907,793.5416666666666,22.94600394888448,0.36363636363636365,0.09090909090909091,8.75
601,54.654141759180185,1097.8125,113.47106941308873,1.0,0.8571428571428571,102.5
602,51.29770992366412,1169.642857142857,24.03229120180103,0.6666666666666666,0.16666666666666666,17.5
603,72.68722466960352,825.4545454545455,30.596683231902574,0.5,0.1,20.0
604,66.62965019433648,900.5,20.087309426600665,0.0,0.0,13.75
605,67.6246830092984,887.25,8.474225628339147,0.0,0.0,7.5
606,156.90936106983656,382.3863636363636,158.9623262842047,0.75,0.75,161.25
607,97.26443768996961,616.875,139.41143021646397,1.0,0.7,91.25000000000003
608,62.55430060816681,959.1666666666666,53.76130372096437,1.0,0.75,30.0
609,63.38028169014085,946.6666666666666,17.32050807568877,0.25,0.0,12.5
610,87.17518860016766,688.2692307692307,22.43333318679644,0.16666666666666666,0.0,17.5
611,137.43218806509947,436.57894736842104,208.19274111150835,1.0,1.0,7.5
612,70.45636509207365,851.5909090909091,7.558313249234496,0.0,0.0,2.5
613,48.7097709481009,1231.7857142857142,13.933149430807973,0.3333333333333333,0.0,7.5
614,70.15678979537603,855.2272727272727,26.702369350408212,0.8,0.0,15.0
615,56.33802816901409,1065.0,230.90402046449228,0.75,0.5,141.25
616,92.7920463960232,646.6071428571429,7.35618925858785,0.0,0.0,7.5
617,92.7920463960232,646.6071428571429,7.35618925858785,0.0,0.0,7.5
618,36.28666465074085,1653.5,128.59432335838156,1.0,0.75,72.5
619,92.51101321585904,648.5714285714286,6.79510628230016,0.0,0.0,7.5
620,64.42953020134229,931.25,73.52933088230846,0.4444444444444444,0.2222222222222222,15.0
621,60.74240719910011,987.7777777777778,16.13503970161956,0.125,0.0,15.0
622,65.65064478311841,913.9285714285714,90.61158415828227,0.4,0.2,17.5
623,58.64386072083079,1023.125,65.14107287265078,0.5714285714285714,0.42857142857142855,22.5
624,51.80388529139685,1158.2142857142858,38.21261678598645,0.6666666666666666,0.3333333333333333,15.0
625,69.04487917146145,869.0,7.088723439378913,0.1111111111111111,0.0,2.5
626,49.39723610702735,1214.642857142857,30.92122974559052,0.6666666666666666,0.16666666666666666,7.5
627,61.891117478510026,969.4444444444445,7.338802674234947,0.0,0.0,2.5
628,56.20608899297424,1067.5,4.677071733467427,0.0,0.0,3.75
629,108.25439783491204,554.25,260.34604375715026,1.0,1.0,187.5
630,59.65202982601491,1005.8333333333334,140.3171011989946,0.875,0.375,150.0
631,61.13784319275403,981.3888888888889,17.87732545522676,0.25,0.0,5.0
632,66.4819944598338,902.5,10.680004681646913,0.14285714285714285,0.0,6.25
633,60.385798154878394,993.6111111111111,33.042714592695326,0.5,0.125,27.5
634,48.837209302325576,1228.5714285714287,41.615955535131484,0.6666666666666666,0.5,37.5
635,64.58557588805166,929.0,120.48443882925298,0.8888888888888888,0.6666666666666666,45.00000000000006
636,,,,,,
637,51.10460473782273,1174.0625,18.410997902069294,0.14285714285714285,0.0,8.75
638,74.17813992694578,808.8636363636364,12.264306875665492,0.0,0.0,7.5
639,82.78240873814315,724.7916666666666,23.171874414662465,0.36363636363636365,0.0,16.25
640,64.2570281124498,933.75,19.533624855617557,0.2222222222222222,0.0,16.25
641,63.424947145877375,946.0,18.947295321496416,0.0,0.0,17.5
642,87.47721947409529,685.8928571428571,3.219242210235705,0.0,0.0,1.25
643,97.85267735797771,613.1666666666666,113.78879069965058,0.7857142857142857,0.7142857142857143,97.5
644,138.5148133897653,433.1666666666667,156.05412166581468,1.0,1.0,22.5
645,78.36734693877551,765.625,59.63539392284865,0.6363636363636364,0.36363636363636365,55.0
646,59.347181008902076,1011.0,17.649362594722792,0.0,0.0,12.5
647,61.696658097686374,972.5,25.603819159562008,0.5,0.125,20.0
648,70.27818448023426,853.75,13.193274801958761,0.3333333333333333,0.0,7.5
649,80.42446244065904,746.0416666666666,15.826478779423917,0.2727272727272727,0.0,7.5
650,60.510557831705015,991.5625,55.39541807541487,1.0,0.8571428571428571,38.75
651,103.74639769452449,578.3333333333334,67.89493517356226,1.0,1.0,32.5
652,102.15482841181165,587.34375,2.415566380271923,0.0,0.0,2.5
653,80.11126564673157,748.9583333333334,9.813804761094897,0.09090909090909091,0.0,3.75
654,85.22261677137394,704.0384615384615,32.780424234865414,0.5833333333333334,0.16666666666666666,30.0
655,80.20050125313283,748.125,34.867681430421115,0.18181818181818182,0.09090909090909091,18.75
656,120.97451694203305,495.97222222222223,83.01246094918224,0.6470588235294118,0.5882352941176471,22.5
657,60.589060308555396,990.2777777777778,20.56306169257973,0.5,0.125,10.0
658,45.58404558404558,1316.25,10.873323625583241,0.2,0.0,11.25
659,68.02721088435374,882.0,20.700241544484452,0.3333333333333333,0.0,17.5
660,62.9737609329446,952.7777777777778,32.902305821857865,0.625,0.125,32.5
661,66.57420249653259,901.25,9.168560410446124,0.0,0.0,6.25
662,58.95196506550218,1017.7777777777778,67.75614408840275,0.5,0.375,20.0
663,54.29864253393665,1105.0,227.3030282830976,1.0,1.0,200.0
664,130.48543689320388,459.82142857142856,3.8340911702828375,0.0,0.0,1.25
665,82.35630540463255,728.5416666666666,9.15482189279993,0.0,0.0,7.5
666,71.73913043478261,836.3636363636364,7.713892158398701,0.1,0.0,5.0
667,80.15585861397162,748.5416666666666,22.533732429897675,0.0,0.0,15.0
668,71.60292921074044,837.9545454545455,7.294002970855097,0.0,0.0,7.5
669,57.88362978595116,1036.5625,20.460995668588566,0.42857142857142855,0.0,12.5
670,59.52052907136952,1008.0555555555555,13.47723274523133,0.125,0.0,7.499999999999773
671,82.59248637797533,726.4583333333334,124.87684905760379,0.8181818181818182,0.8181818181818182,81.25
672,59.767570558937464,1003.8888888888889,9.938079899999067,0.0,0.0,7.500000000000114
673,82.66360505166475,725.8333333333334,12.923385349392353,0.0,0.0,3.75
674,51.70821791320406,1160.357142857143,29.59333212266657,0.6666666666666666,0.16666666666666666,27.5
675,77.90100081146875,770.2083333333334,17.691168151243023,0.18181818181818182,0.0,12.5
676,72.36842105263158,829.0909090909091,21.644669910562047,0.3,0.0,22.5
677,72.1311475409836,831.8181818181819,5.943953104828191,0.0,0.0,2.5
678,64.343163538874,932.5,10.801234497346433,0.125,0.0,10.0
679,67.85411365564038,884.25,3.7165171868296265,0.0,0.0,2.5
680,72.2495894909688,830.4545454545455,15.514589241705465,0.2,0.0,15.0
681,65.3061224489796,918.75,7.00446286306095,0.0,0.0,6.25
682,58.67970660146699,1022.5,39.37003937005906,0.8571428571428571,0.42857142857142855,33.75
683,89.24302788844622,672.3214285714286,8.098957478891833,0.07692307692307693,0.0,7.5
684,55.36332179930796,1083.75,8.00390529679106,0.0,0.0,7.5
685,66.94560669456067,896.25,42.533075364943926,0.4444444444444444,0.4444444444444444,10.0
686,94.16688464556631,637.1666666666666,99.96610536688034,0.5714285714285714,0.5714285714285714,12.5
687,73.2519422863485,819.0909090909091,31.120599858248074,0.4,0.0,25.0
688,76.33183143387225,786.0416666666666,12.477410143490872,0.0,0.0,11.25
689,89.86175115207372,667.6923076923077,82.225426177425,0.75,0.4166666666666667,32.5
690,70.64490232807064,849.3181818181819,61.57119778511878,0.8,0.5,52.5
691,60.98249576510446,983.8888888888889,12.024922678840758,0.25,0.0,10.0
692,72.05240174672488,832.7272727272727,31.63094258673965,0.5,0.1,20.0
693,89.00662251655629,674.1071428571429,9.239238085911806,0.07692307692307693,0.0,5.0
694,61.50341685649203,975.5555555555555,16.987649834911842,0.25,0.0,7.5
695,71.48659626320064,839.3181818181819,28.14513741893222,0.2,0.0,20.0
696,79.66804979253112,753.125,73.04482784564559,0.45454545454545453,0.45454545454545453,66.25
697,102.83877878950187,583.4375,3.8400642898264086,0.0,0.0,2.5
698,77.56531106921626,773.5416666666666,36.59260987169708,0.6363636363636364,0.45454545454545453,22.5
699,93.20388349514563,643.75,3.0980984951602633,0.0,0.0,2.5
700,99.5850622406639,602.5,15.258194519667128,0.06666666666666667,0.0,13.75
701,120.12012012012012,499.5,251.4875742457269,1.0,1.0,2.5
702,73.90817469204927,811.8181818181819,5.445067523050427,0.0,0.0,5.0
703,63.008663691257546,952.25,17.51606405560336,0.3333333333333333,0.1111111111111111,13.75
704,91.1062906724512,658.5714285714286,106.66500583315859,1.0,0.8461538461538461,76.25
705,68.22057987492893,879.5,18.05547008526779,0.6666666666666666,0.0,13.75
706,71.02693104468777,844.75,8.835298523536146,0.0,0.0,6.25
707,80.94435075885329,741.25,46.687123492457744,0.45454545454545453,0.18181818181818182,18.75
708,73.59910788960134,815.2272727272727,28.928881162071516,0.5,0.1,15.0
709,65.1977060066405,920.2777777777778,35.048467323527795,0.5,0.0,32.5
710,62.82722513089005,955.0,0.0,,,0.0
711,58.25242718446602,1030.0,23.284920012746433,0.2857142857142857,0.0,15.0
712,88.39779005524862,678.75,13.050383136138187,0.5,0.0,6.25
713,66.27799938631482,905.2777777777778,16.391242768813257,0.5,0.0,10.0
714,65.46644844517185,916.5,20.62159062730128,0.2222222222222222,0.0,20.0
715,60.28467764443204,995.2777777777778,68.37848553419867,0.75,0.5,32.5
716,61.43344709897611,976.6666666666666,39.122315314351674,0.5,0.25,25.0
717,73.17073170731707,820.0,12.24744871391589,0.0,0.0,10.0
718,68.45407872219053,876.5,38.21321760857099,0.5555555555555556,0.2222222222222222,22.5
719,55.39526832083093,1083.125,44.59452741088305,0.8571428571428571,0.42857142857142855,30.0
720,79.57999447361149,753.9583333333334,26.189579935963504,0.09090909090909091,0.0,21.25
721,88.43537414965986,678.4615384615385,1.8445505858895077,0.0,0.0,0.0
722,58.52072609049038,1025.2777777777778,53.85737910398739,0.75,0.5,37.5
723,64.41992245750075,931.3888888888889,16.24940644689963,0.25,0.0,17.5
724,95.44008483563097,628.6666666666666,4.268749491621899,0.0,0.0,2.5
725,64.4814615797958,930.5,14.482748357960238,0.4444444444444444,0.0,6.25
726,62.95540658700087,953.0555555555555,59.35741292488919,0.75,0.375,45.0
727,82.21524407650585,729.7916666666666,47.8436944353404,0.5454545454545454,0.0,32.5
728,66.57420249653259,901.25,51.626664622072965,0.8888888888888888,0.4444444444444444,35.0
729,101.53358011634056,590.9375,6.1157455596190395,0.0,0.0,5.0
730,77.46100053792361,774.5833333333334,13.950557535652672,0.2727272727272727,0.0,7.5
731,71.37064071370641,840.6818181818181,16.2050395181599,0.1,0.0,7.5
732,74.30340557275542,807.5,57.217686394712224,0.1111111111111111,0.1111111111111111,0.0
733,68.47360912981455,876.25,11.025538535599972,0.1111111111111111,0.0,10.0
734,169.11332941867292,354.7916666666667,141.01181367964253,1.0,1.0,141.25
735,81.10215752534442,739.8076923076923,5.8393178656496065,0.0,0.0,5.0
736,66.5024630541872,902.2222222222222,7.767850807838647,0.125,0.0,5.0
737,87.37048445813497,686.7307692307693,27.340175696227554,0.4166666666666667,0.0,17.5
738,67.15165081141578,893.5,25.401771591761076,0.1111111111111111,0.1111111111111111,8.75
739,63.67736800212258,942.25,8.764274071479052,0.1111111111111111,0.0,7.5
740,84.59869848156181,709.2307692307693,126.50397004785985,0.75,0.6666666666666666,110.0
741,63.981042654028435,937.7777777777778,9.820927516479827,0.25,0.0,5.0
742,128.3912877340466,467.32142857142856,154.34326390304471,1.0,1.0,72.5
743,54.71644343117698,1096.5625,26.924010543565014,0.42857142857142855,0.0,25.0
744,64.65517241379311,928.0,13.360389215887388,0.0,0.0,11.25
745,78.88249794576828,760.625,7.006321550333432,0.0,0.0,6.25
746,58.87162714636141,1019.1666666666666,99.51967979584072,1.0,1.0,70.0
747,59.65202982601491,1005.8333333333334,36.59083066683358,0.5,0.0,27.5
748,66.83375104427736,897.75,33.62383826989417,0.5555555555555556,0.1111111111111111,23.75
749,69.28406466512702,866.0,22.588713996153036,0.2222222222222222,0.0,16.25
750,67.3211781206171,891.25,60.881544822712904,0.3333333333333333,0.3333333333333333,46.25
751,51.58120970217992,1163.2142857142858,33.930451075753204,0.8333333333333334,0.6666666666666666,22.5
752,151.8987341772152,395.0,0.0,,,0.0
753,62.247838616714695,963.8888888888889,13.44283736951429,0.25,0.0,10.0
754,145.6953642384106,411.8181818181818,113.7186066024523,1.0,1.0,112.5
755,72.21006564551422,830.9090909090909,8.344345341220826,0.0,0.0,5.0
756,84.50704225352112,710.0,95.29194905948538,0.125,0.125,12.5
757,74.76635514018692,802.5,177.5025150727247,1.0,1.0,122.5
758,63.72809346787042,941.5,16.590660023037056,0.5555555555555556,0.0,12.5
759,137.0309951060359,437.85714285714283,194.25726332300033,1.0,1.0,7.5
760,48.865619546247814,1227.857142857143,33.68521749300456,0.6666666666666666,0.16666666666666666,15.0
761,81.74850979279023,733.9583333333334,14.841465467473965,0.0,0.0,8.75
762,77.19298245614036,777.2727272727273,7.4965556829412,0.0,0.0,5.0
763,98.33546734955186,610.15625,66.66420486991126,0.26666666666666666,0.26666666666666666,5.0
764,66.6851903306474,899.75,39.960136386153636,0.5555555555555556,0.2222222222222222,27.5
765,58.52072609049038,1025.2777777777778,23.405971592156565,0.5,0.125,20.0
766,64.13301662707839,935.5555555555555,29.785757637244874,0.5,0.125,12.5
767,57.70772107934812,1039.7222222222222,6.173919658581353,0.0,0.0,2.5
768,78.79616963064295,761.4583333333334,9.490034978275311,0.0,0.0,8.75
769,86.42659279778393,694.2307692307693,12.837168667906644,0.08333333333333333,0.0,10.0
770,70.38123167155425,852.5,45.40099117860754,0.6666666666666666,0.4444444444444444,40.0
771,2482.758620689655,24.166666666666668,14.695993407123666,0.6,0.0,2.5
772,86.50875386199795,693.5714285714286,39.784175399835775,0.46153846153846156,0.23076923076923078,5.0
773,68.92590465249856,870.5,25.709920264364882,0.4444444444444444,0.1111111111111111,21.25
774,67.5512665862485,888.2142857142857,62.588712550870625,1.0,0.6,57.5
775,90.37116729424422,663.9285714285714,6.45826475715183,0.0,0.0,3.75
776,80.2899358795651,747.2916666666666,4.502121413536314,0.0,0.0,5.0
777,84.46128857606931,710.3846153846154,21.457609235020577,0.16666666666666666,0.0,15.0
778,86.35482978134515,694.8076923076923,2.852384033498332,0.0,0.0,2.5
779,143.51726012503397,418.0681818181818,53.98301404872762,0.7619047619047619,0.42857142857142855,53.75
780,78.64164432529043,762.9545454545455,15.551168540505456,0.0,0.0,12.5
781,99.43034697048162,603.4375,62.24871359112572,0.8,0.6666666666666666,47.5
782,174.50012983640613,343.8392857142857,120.29257885697366,1.0,1.0,110.0
783,57.74783445620789,1039.0,37.934153476781304,0.3333333333333333,0.0,15.000000000000114
784,143.264988320789,418.80434782608694,141.8106314720011,1.0,1.0,57.5
785,68.66059817945384,873.8636363636364,120.26657718076481,1.0,0.8,45.0
786,80.64967796135537,743.9583333333334,4.727835715795924,0.0,0.0,3.75
787,101.12359550561797,593.3333333333334,7.168604389202189,0.0,0.0,5.0
788,58.80751429349306,1020.2777777777778,23.612745041503775,0.5,0.0,15.0
789,97.95918367346938,612.5,50.86747487343951,0.25,0.25,20.0
790,43.47826086956522,1380.0,56.66053888436525,0.8,0.4,20.0
791,113.94658753709199,526.5625,167.76535650649095,1.0,1.0,36.25
792,116.914749661705,513.1944444444445,30.34301076803579,0.5882352941176471,0.23529411764705882,7.500000000000028
793,62.9004076878276,953.8888888888889,15.772299518420434,0.375,0.0,12.5
794,56.992084432717675,1052.7777777777778,33.007668394473214,0.375,0.0,30.0
795,77.92207792207792,770.0,34.21744194607968,0.36363636363636365,0.09090909090909091,13.75
796,66.3441603317208,904.375,144.0472470233291,0.3333333333333333,0.0,10.0
797,54.0084388185654,1110.9375,21.756374784186818,0.7142857142857143,0.2857142857142857,17.5
798,62.86379511059371,954.4444444444445,4.530418452861137,0.0,0.0,2.5
799,76.90066996795805,780.2272727272727,16.903958165260956,0.3,0.0,15.0
800,93.6768149882904,640.5,33.98774288867483,0.2857142857142857,0.07142857142857142,15.0
801,55.23590333716916,1086.25,11.659223816361019,0.14285714285714285,0.0,8.75
802,69.56521739130434,862.5,37.36642878306676,0.8888888888888888,0.1111111111111111,25.0
803,70.64490232807064,849.3181818181819,59.04631184205124,0.5,0.3,22.5
804,82.42701774470521,727.9166666666666,10.04330899432829,0.0,0.0,8.75
805,82.51785241999471,727.1153846153846,5.619861229308637,0.0,0.0,5.0
806,51.282051282051285,1170.0,164.60558921251732,0.6666666666666666,0.3333333333333333,10.0
807,67.43467266085979,889.75,28.382432947159412,0.5555555555555556,0.0,23.75
808,98.96907216494846,606.25,1.7677669529663689,0.0,0.0,0.0
809,,,,,,
810,59.916782246879336,1001.3888888888889,169.2225322824912,1.0,0.875,160.0
811,99.06439185470556,605.6666666666666,10.265909062956329,0.0,0.0,7.5
812,137.82302270947534,435.34090909090907,163.59125798795804,1.0,1.0,150.0
813,72.38826432684398,828.8636363636364,68.73337514995268,0.3,0.1,7.5
814,146.48249277224542,409.60526315789474,167.3207272329787,1.0,1.0,60.0
815,67.83493499152063,884.5,21.412613105363857,0.2222222222222222,0.0,11.25
816,65.23511823865181,919.75,17.7288606514914,0.3333333333333333,0.0,8.75
817,84.80565371024736,707.5,14.871242253216312,0.25,0.0,10.0
818,90.17713365539453,665.3571428571429,21.231234211002644,0.15384615384615385,0.0,8.75
819,71.38607971445568,840.5,92.90317540321213,0.8888888888888888,0.5555555555555556,47.5
820,83.06709265175719,722.3076923076923,12.651449387229635,0.25,0.0,10.0
821,68.20119352088662,879.75,9.317322576792112,0.0,0.0,3.75
822,71.7001629549158,836.8181818181819,11.5842226703406,0.1,0.0,7.5
823,120.60301507537689,497.5,4.214636152117616,0.0,0.0,2.5
824,94.23135004530353,636.7307692307693,7.745011756000873,0.08333333333333333,0.0,5.0
825,71.77033492822966,836.0,7.433034373659253,0.0,0.0,6.25
826,90.69437883797828,661.5625,7.493486755176124,0.0,0.0,3.75
827,75.70977917981072,792.5,12.385842357671557,0.1,0.0,15.0
828,100.07818608287725,599.53125,29.51719242132456,0.5333333333333333,0.3333333333333333,6.25
829,79.80049875311721,751.875,12.124570439126218,0.09090909090909091,0.0,7.5
830,85.3625170998632,702.8846153846154,84.30625349698695,0.25,0.25,5.0
831,68.78761822871883,872.25,22.20501069578666,0.6666666666666666,0.1111111111111111,16.25
832,74.57276022786121,804.5833333333334,148.22503068720283,0.9090909090909091,0.7272727272727273,131.25
833,105.43657331136738,569.0625,1.9515618744994994,0.0,0.0,0.0
834,123.07692307692308,487.5,89.93052874302475,0.8421052631578947,0.631578947368421,42.49999999999997
835,169.58733747880157,353.8,96.14343451323133,1.0,1.0,37.5
836,50.25426263834879,1193.9285714285713,30.055221285670353,0.5,0.16666666666666666,17.5
837,61.19847003824905,980.4166666666666,14.246100831065633,0.25,0.0,13.75
838,107.6923076923077,557.1428571428571,153.2122044480685,0.8333333333333334,0.6666666666666666,117.5
839,62.780269058295964,955.7142857142857,27.081698014469794,0.6,0.0,25.0
840,64.91750067622397,924.25,26.903763677225534,0.4444444444444444,0.0,20.0
841,66.98297516048004,895.75,189.55226851715597,1.0,1.0,186.25
842,56.79513184584179,1056.4285714285713,15.344679327814884,0.3333333333333333,0.0,7.5
843,87.34602463605823,686.9230769230769,8.154390402736228,0.0,0.0,5.0
844,108.51063829787233,552.9411764705883,7.338220558749794,0.0,0.0,5.0
845,155.3398058252427,386.25,170.62477106211747,1.0,0.9411764705882353,75.0
846,75.68988173455979,792.7083333333334,7.86992781980171,0.09090909090909091,0.0,5.0
847,97.79951100244499,613.5,7.516648189186454,0.0,0.0,7.5
848,75.61039642950907,793.5416666666666,33.99537856663592,0.6363636363636364,0.0,32.5
849,49.71885173128145,1206.7857142857142,48.545160964417704,0.6666666666666666,0.0,37.5
850,67.7618069815195,885.4545454545455,70.23352428779505,0.6,0.3,15.0
851,164.94845360824743,363.75,126.0041398892543,1.0,1.0,82.5
852,61.679040548258136,972.7777777777778,63.36013078300507,0.875,0.625,30.0
853,55.76532094103979,1075.9375,51.97561778132127,0.8571428571428571,0.5714285714285714,38.75
854,153.0201342281879,392.10526315789474,153.67271946946624,1.0,1.0,10.0
855,80.62709966405376,744.1666666666666,62.82692274990254,0.42857142857142855,0.2857142857142857,7.5
856,74.6184284906727,804.0909090909091,46.03941897085098,0.7,0.4,35.0
857,90.71274298056156,661.4285714285714,165.59878980135534,1.0,0.8461538461538461,190.0
858,140.27630180658872,427.72727272727275,53.877539440831434,0.9047619047619048,0.5714285714285714,46.25
859,77.23815096547688,776.8181818181819,44.09559487753064,0.8,0.4,37.5
860,72.07207207207207,832.5,51.18050844261362,0.25,0.125,17.5
861,67.68189509306261,886.5,23.323807579381203,0.3333333333333333,0.0,12.5
862,59.25925925925926,1012.5,74.98147919467995,0.5,0.5,17.5
863,56.9620253164557,1053.3333333333333,15.456030825826172,0.0,0.0,12.5
864,71.60292921074044,837.9545454545455,30.410415788504963,0.8,0.1,20.0
865,119.63445029077818,501.52777777777777,4.4983707613060036,0.0,0.0,3.75
866,57.67497747071192,1040.3125,8.425917976695477,0.0,0.0,5.0
867,65.50218340611353,916.0,68.97644525488391,0.6666666666666666,0.2222222222222222,73.75
868,62.9737609329446,952.7777777777778,42.17102158744073,0.625,0.0,32.5
869,73.37409672040022,817.7272727272727,19.171906099057402,0.6,0.0,7.5
870,74.01177460050464,810.6818181818181,42.628027872874654,0.6,0.1,32.5
871,156.86274509803923,382.5,0.0,,,0.0
872,60.100166944908175,998.3333333333334,9.204467514322708,0.0,0.0,2.5
873,70.27818448023426,853.75,27.754504138968148,0.1111111111111111,0.0,16.25
874,77.27394687416152,776.4583333333334,57.62177624147161,0.9090909090909091,0.6363636363636364,40.0
875,80.37957019257605,746.4583333333334,18.997212880373326,0.09090909090909091,0.0,13.75
876,71.35135135135135,840.9090909090909,39.546760688983554,0.5,0.0,35.0
877,174.2844938060658,344.2647058823529,132.11170826314984,1.0,1.0,45.0
878,89.70672800460035,668.8461538461538,66.82076618012853,0.75,0.25,52.5
879,89.0302066772655,673.9285714285714,5.486532677049006,0.0,0.0,3.75
880,51.336898395721924,1168.75,113.17160642139882,1.0,1.0,35.0
881,95.45454545454545,628.5714285714286,2.2587697572631282,0.0,0.0,1.25
882,81.70212765957447,734.375,35.62134484172844,0.45454545454545453,0.09090909090909091,18.75
883,78.7100300628587,762.2916666666666,73.11134725350246,0.36363636363636365,0.09090909090909091,23.75
884,77.90100081146875,770.2083333333334,38.6956383918854,0.36363636363636365,0.0,33.75
885,78.00650054171182,769.1666666666666,19.561157657175837,0.09090909090909091,0.0,12.5
886,65.60962274466922,914.5,13.171939872319491,0.0,0.0,5.0
887,144.71243042671614,414.61538461538464,181.9389324689166,1.0,1.0,150.0
888,60.16713091922006,997.2222222222222,27.19386277893425,0.375,0.0,20.0
889,82.35630540463255,728.5416666666666,15.826478779423917,0.2727272727272727,0.0,8.75
890,47.39069111424541,1266.0714285714287,17.619851976491443,0.6666666666666666,0.16666666666666666,12.5
891,76.53467977677384,783.9583333333334,22.32474181759382,0.18181818181818182,0.0,12.5
892,72.62723521320495,826.1363636363636,19.25792742210442,0.2,0.0,12.5
893,125.91815320041972,476.5,181.67519093150833,1.0,1.0,166.25
894,62.33766233766234,962.5,9.287087810503355,0.2222222222222222,0.0,6.25
895,69.49197157146618,863.4090909090909,33.798748081856914,0.5,0.1,27.5
896,87.7742946708464,683.5714285714286,12.702442316984815,0.0,0.0,10.0
897,64.88678607637715,924.6875,65.4842240066262,1.0,0.6666666666666666,35.0
898,88.18541548897683,680.3846153846154,5.357072414301584,0.0,0.0,2.5
899,63.29113924050633,948.0,96.63591464874744,0.7777777777777778,0.5555555555555556,88.75
900,85.22261677137394,704.0384615384615,4.955422587201971,0.0,0.0,2.5
901,106.7853170189099,561.875,12.484365222148861,0.0,0.0,7.5
902,74.53416149068323,805.0,9.231861823449956,0.1,0.0,5.0
903,72.94832826747721,822.5,79.60841664045329,0.8571428571428571,0.5714285714285714,60.0
904,65.27060103345119,919.25,9.940447676035522,0.1111111111111111,0.0,10.0
905,167.83216783216784,357.5,121.52207057305942,1.0,1.0,120.0
906,66.57420249653259,901.25,15.13481086766531,0.3333333333333333,0.0,13.75
907,59.22676172196326,1013.0555555555555,39.64736536324846,0.5,0.25,20.000000000000114
908,157.68725361366623,380.5,96.43845187475792,1.0,1.0,20.0
909,58.61601085481683,1023.6111111111111,14.630215646959659,0.25,0.0,10.0
910,84.59869848156181,709.2307692307693,70.59080768894428,0.08333333333333333,0.08333333333333333,2.5
911,90.56603773584905,662.5,6.1961969903205265,0.0,0.0,5.0
912,69.86899563318778,858.75,18.915932438026946,0.3333333333333333,0.0,17.5
913,73.47620372947398,816.5909090909091,16.558186909169986,0.1,0.0,15.0
914,67.95016987542469,883.0,4.0,0.0,0.0,2.5
915,62.28373702422145,963.3333333333334,47.784237289438146,0.625,0.125,30.0
916,72.72727272727273,825.0,33.2859511724473,0.2,0.0,27.5
917,60.9308885754584,984.7222222222222,170.35275673846627,1.0,1.0,165.0
918,54.36013590033975,1103.75,44.45854810944685,0.8571428571428571,0.2857142857142857,28.75
919,61.633281972265024,973.5,22.000000000000025,0.3333333333333333,0.0,18.75
920,83.2666132906325,720.5769230769231,7.01330097261941,0.0,0.0,2.5
921,63.231850117096016,948.8888888888889,17.404944664245047,0.25,0.0,12.5
922,72.52747252747253,827.2727272727273,18.01055705105359,0.1,0.0,10.0
923,76.37231503579952,785.625,67.12957774582925,0.8181818181818182,0.6363636363636364,43.75
924,91.2299755633994,657.6785714285714,50.5722987213275,0.7692307692307693,0.23076923076923078,41.25
925,96.35974304068523,622.6666666666666,11.742609969205692,0.0,0.0,10.0
926,98.25327510917032,610.6666666666666,102.04764682354131,0.9285714285714286,0.7142857142857143,77.5
927,63.75442739079103,941.1111111111111,32.21264225405383,0.375,0.0,15.0
928,75.72968708914016,792.2916666666666,19.188167288432965,0.0,0.0,16.25
929,70.96774193548387,845.4545454545455,15.18140990196794,0.2,0.0,5.0
930,91.08159392789373,658.75,11.210247225513934,0.0,0.0,5.0
931,97.5609756097561,615.0,2.041241452319315,0.0,0.0,2.5
932,97.5609756097561,615.0,2.041241452319315,0.0,0.0,2.5
933,49.807293210791585,1204.642857142857,13.655753067360829,0.5,0.0,10.0
934,146.8189233278956,408.6666666666667,169.55300711642428,1.0,1.0,145.0
935,98.48679148499615,609.21875,16.363038331480496,0.13333333333333333,0.0,11.25
936,71.35135135135135,840.9090909090909,17.29663417312768,0.1,0.0,15.0
937,57.95546015562114,1035.2777777777778,16.433554953054525,0.125,0.0,10.0
938,61.64383561643835,973.3333333333334,6.770032003863301,0.0,0.0,5.0
939,103.81184103811842,577.96875,12.69284831854143,0.3333333333333333,0.0,7.5
940,64.26658732520083,933.6111111111111,13.129224775662749,0.0,0.0,12.5
941,67.74876499647142,885.625,169.0726082930053,1.0,0.8333333333333334,85.0
942,48.275862068965516,1242.857142857143,28.360830994416887,0.5,0.3333333333333333,30.0
943,68.3371298405467,878.0,73.6529021831455,0.4444444444444444,0.3333333333333333,15.0
944,73.8255033557047,812.7272727272727,11.892250410864662,0.0,0.0,10.0
945,65.09357200976403,921.75,15.126549507405844,0.3333333333333333,0.0,8.75
946,96.0,625.0,0.0,,,0.0
947,119.80033277870217,500.8333333333333,161.18484902606556,1.0,0.8888888888888888,18.75
948,44.92979719188767,1335.4166666666667,161.2736847377429,1.0,0.8,75.0
949,46.22792937399679,1297.9166666666667,74.51812792125746,1.0,0.8,41.25
950,73.55809417665088,815.6818181818181,98.09602733297815,0.8,0.4,75.0
951,77.3569701853344,775.625,25.680833482060766,0.18181818181818182,0.09090909090909091,7.5
952,85.08317425688573,705.1923076923077,19.79368436720163,0.0,0.0,15.0
953,91.65302782324059,654.6428571428571,3.388154635894692,0.0,0.0,2.5
954,88.36023789294818,679.0384615384615,11.910663513232326,0.0,0.0,7.5
955,42.80618311533888,1401.6666666666667,40.354333376010835,0.6,0.6,38.75
956,82.64900662251655,725.9615384615385,114.02402944090701,0.75,0.75,65.0
957,60.31834683049428,994.7222222222222,65.32445139928299,0.875,0.625,47.500000000000114
958,86.49847518713612,693.6538461538462,4.115564338275518,0.0,0.0,2.5
959,187.34318371898522,320.26785714285717,127.69477294809411,1.0,1.0,83.75
960,59.55334987593052,1007.5,8.333333333333325,0.0,0.0,5.000000000000114
961,84.27876823338735,711.9230769230769,82.46300945875116,0.25,0.08333333333333333,5.0
962,85.6378233719893,700.625,109.69951857232556,0.6666666666666666,0.16666666666666666,40.0
963,54.794520547945204,1095.0,32.76335605520289,0.7142857142857143,0.14285714285714285,31.25
964,74.94145199063232,800.625,7.153451963912248,0.0,0.0,6.25
965,54.160789844851905,1107.8125,12.527313908017152,0.14285714285714285,0.0,13.75
966,64.6377592243469,928.25,63.76764461699992,0.5555555555555556,0.3333333333333333,52.49999999999994
967,59.93340732519423,1001.1111111111111,13.999559075949072,0.125,0.0,12.5
968,68.89352818371607,870.9090909090909,21.353962993720632,0.4,0.0,15.0
969,68.20119352088662,879.75,39.582982454585206,0.2222222222222222,0.0,30.0
970,67.17044500419816,893.25,39.75,0.6666666666666666,0.3333333333333333,27.5
971,97.19222462203024,617.3333333333334,7.156970184527964,0.0,0.0,7.5
972,154.34083601286173,388.75,153.6076576867182,1.0,1.0,91.25
973,85.60509554140128,700.8928571428571,4.392276384374587,0.0,0.0,1.25
974,64.01707121899173,937.25,18.723314343352783,0.0,0.0,17.5
975,98.20971867007673,610.9375,37.86153844932876,0.06666666666666667,0.06666666666666667,15.0
976,55.04587155963303,1090.0,14.469796128487781,0.42857142857142855,0.0,11.25
977,72.26936764303312,830.2272727272727,67.49119930384312,0.1,0.1,35.0
978,65.95218466611706,909.75,32.87191050121669,0.3333333333333333,0.0,25.0
979,75.993091537133,789.5454545454545,13.560394445614817,0.2,0.0,7.5
980,56.82715074980269,1055.8333333333333,101.18739491107027,1.0,0.875,87.5
981,127.0236612702366,472.3529411764706,77.024015488273,0.3333333333333333,0.26666666666666666,35.0
982,68.39555428897121,877.25,9.182183836103478,0.0,0.0,8.75
983,87.79723020642801,683.3928571428571,78.23731722216993,0.3076923076923077,0.07692307692307693,6.25
984,77.17041800643086,777.5,13.844373104863458,0.0,0.0,13.75
985,76.14652437265647,787.9545454545455,52.01418274482038,0.3,0.1,10.0
986,67.83493499152063,884.5,20.087309426600665,0.1111111111111111,0.0,13.75
987,83.93866020984666,714.8076923076923,55.62115620653241,0.08333333333333333,0.08333333333333333,2.5
988,51.329055912007334,1168.9285714285713,44.97731854694619,0.6666666666666666,0.5,22.5
989,65.11908350919505,921.3888888888889,36.78222531013359,0.625,0.0,22.5
990,101.53358011634056,590.9375,20.03658762738805,0.06666666666666667,0.0,11.25
991,72.19031993437244,831.1363636363636,75.82398604336316,0.1,0.1,5.0
992,70.28753993610223,853.6363636363636,18.597520495889803,0.1,0.0,15.0
993,103.3091202582728,580.78125,107.90157099615139,0.5333333333333333,0.3333333333333333,8.75
994,112.36573946571193,533.9705882352941,3.0987216920155114,0.0,0.0,2.5
995,54.23728813559322,1106.25,26.75116819879087,0.5714285714285714,0.42857142857142855,6.25
996,55.846422338568935,1074.375,15.039011769394955,0.2857142857142857,0.0,12.5
997,75.21367521367522,797.7272727272727,22.59964162664737,0.3,0.0,17.5
998,3636.3636363636365,16.5,7.0,0.0,0.0,0.0
999,51.75600739371534,1159.2857142857142,32.50588643709358,0.5,0.16666666666666666,20.0
1000,74.49560269011899,805.4166666666666,13.686723088047367,0.09090909090909091,0.0,8.75
1001,76.10993657505286,788.3333333333334,51.339691164720584,0.09090909090909091,0.09090909090909091,5.0
1002,159.40959409594095,376.3888888888889,124.98117142144469,1.0,1.0,120.0
1003,65.82556226001097,911.5,170.72346060222654,1.0,0.5,182.5
1004,197.7633902295468,303.39285714285717,150.1713519582866,0.7777777777777778,0.3333333333333333,8.75
1005,64.74820143884892,926.6666666666666,10.474837574980446,0.125,0.0,2.5
1006,82.73667462211614,725.1923076923077,97.20844741338435,0.6666666666666666,0.4166666666666667,30.0
1007,84.64460119370592,708.8461538461538,3.874892630694208,0.0,0.0,2.5
1008,93.7907077724707,639.7222222222222,107.29272293618858,0.6666666666666666,0.3333333333333333,25.0
1009,69.48465547191662,863.5,15.008331019803634,0.3333333333333333,0.0,12.5
1010,130.9090909090909,458.3333333333333,97.67790037783482,0.75,0.5,56.25
1011,82.61617900172116,726.25,26.78035660703569,0.36363636363636365,0.0,20.0
1012,79.66804979253112,753.125,4.578596036632481,0.0,0.0,2.5
1013,86.17594254937164,696.25,25.279685520195855,0.6666666666666666,0.0,21.25
1014,101.74880763116057,589.6875,152.14835225446905,0.8,0.6,118.75
1015,89.44954128440368,670.7692307692307,63.103887294809155,0.25,0.25,5.0
1016,80.21390374331551,748.0,77.0535528058246,0.375,0.125,13.75
1017,60.625197347647614,989.6875,12.082884330738217,0.14285714285714285,0.0,7.499999999999943
1018,91.3081650570676,657.1153846153846,105.88385397474148,0.8333333333333334,0.8333333333333334,77.5
1019,50.34084950183534,1191.875,57.44222641054227,0.7142857142857143,0.2857142857142857,31.25
1020,90.10458567980692,665.8928571428571,93.84926717337537,0.6153846153846154,0.38461538461538464,38.75
1021,69.62576153176676,861.75,6.896557112066861,0.0,0.0,6.25
1022,63.43612334801762,945.8333333333334,6.871842709362768,0.0,0.0,7.5
1023,87.13692946058092,688.5714285714286,5.236742249505421,0.0,0.0,2.5
1024,174.77243172951884,343.30357142857144,26.356531884130423,0.37037037037037035,0.14814814814814814,10.0
1025,55.29953917050691,1085.0,21.360009363293827,0.7142857142857143,0.0,11.25
1026,67.00167504187604,895.5,25.975950415721076,0.3333333333333333,0.0,16.25
1027,65.93406593406593,910.0,16.74979270186815,0.125,0.0,10.0
1028,73.45867949278531,816.7857142857143,6.368769464331074,0.0,0.0,5.0
1029,217.8517397881997,275.4166666666667,109.9186883817104,1.0,1.0,98.75
1030,110.06204478014567,545.1470588235294,10.62290076962247,0.1875,0.0,7.5
1031,70.26883151450626,853.8636363636364,40.33050442006471,0.9,0.3,30.0
1032,70.94295004433934,845.75,17.890290662814845,0.2222222222222222,0.0,16.25
1033,91.03224058520726,659.1071428571429,10.027067958118899,0.0,0.0,7.5
1034,96.64429530201342,620.8333333333334,2.981423969999719,0.0,0.0,0.0
1035,159.53203935123636,376.1,89.74987465172305,0.7916666666666666,0.7083333333333334,47.5
1036,79.16437603078614,757.9166666666666,93.74629622313383,1.0,0.3333333333333333,65.0
1037,70.9849157054126,845.25,15.101738310538956,0.1111111111111111,0.0,13.75
1038,72.46774636288772,827.9545454545455,23.71272629685908,0.3,0.0,27.5
1039,237.62376237623764,252.5,0.0,,,0.0
1040,64.6900269541779,927.5,153.4560197581053,0.7777777777777778,0.5555555555555556,125.0
1041,101.86757215619694,589.0,100.66363130081622,0.8571428571428571,0.7142857142857143,62.5
1042,64.29145459416019,933.25,26.12589711378348,0.3333333333333333,0.0,22.5
1043,66.64815329075257,900.25,16.82446135839124,0.0,0.0,7.5
1044,65.41490006056935,917.2222222222222,158.5675655343998,1.0,1.0,127.5
1045,56.956392761791754,1053.4375,25.888507947543037,0.8571428571428571,0.0,17.5
1046,81.12676056338027,739.5833333333334,2.2438186696393765,0.0,0.0,2.5
1047,87.78840742824985,683.4615384615385,22.069350081453496,0.25,0.0,15.0
1048,93.20388349514563,643.75,3.238992347717331,0.0,0.0,1.25
1049,62.60189109879361,958.4375,69.83168939493015,0.8571428571428571,0.5714285714285714,58.75
1050,77.3286467486819,775.9090909090909,12.625404011210136,0.3,0.1,5.0
1051,88.26025459688826,679.8076923076923,2.852384033498332,0.0,0.0,2.5
1052,48.3731644111719,1240.357142857143,33.09695096629456,0.6666666666666666,0.5,37.5
1053,58.859595340282034,1019.375,12.35857495830327,0.42857142857142855,0.0,7.499999999999943
1054,68.39555428897121,877.25,38.00411161966557,0.5555555555555556,0.0,27.5
1055,70.36247334754798,852.7272727272727,11.304391014041716,0.1,0.0,10.0
1056,79.22971114167814,757.2916666666666,51.158030622984526,0.7272727272727273,0.6363636363636364,25.0
1057,118.40888066604995,506.71875,258.1071706160786,1.0,1.0,256.25
1058,69.84126984126983,859.0909090909091,7.406441244000147,0.0,0.0,7.5
1059,83.5117773019272,718.4615384615385,5.927321156700939,0.0,0.0,5.0
1060,71.73913043478261,836.3636363636364,76.85851550061761,0.3,0.1,20.0
1061,66.6851903306474,899.75,9.90265116016918,0.0,0.0,7.5
1062,51.93400054097917,1155.3125,25.200368920910662,0.2857142857142857,0.14285714285714285,22.5
1063,109.33940774487472,548.75,15.0,0.4,0.0,10.0
1064,72.98866463920376,822.0454545454545,13.932392839994638,0.0,0.0,7.5
1065,60.150375939849624,997.5,24.72066162365221,0.625,0.125,25.0
1066,87.88909233586189,682.6785714285714,108.44050494277911,0.5384615384615384,0.5384615384615384,5.0
1067,86.4026585433398,694.4230769230769,20.36101681933296,0.0,0.0,20.0
1068,77.06716617607707,778.5416666666666,28.53101991205751,0.6363636363636364,0.09090909090909091,23.75
1069,62.92606187729418,953.5,30.29438891940222,0.1111111111111111,0.0,22.5
1070,67.58659532526049,887.75,19.119688804998894,0.0,0.0,18.75
1071,79.97778394890308,750.2083333333334,6.246526812735396,0.0,0.0,3.75
1072,85.05997818974919,705.3846153846154,8.01717830218301,0.08333333333333333,0.0,5.0
1073,70.4225352112676,852.0,16.537835408541227,0.0,0.0,13.75
1074,167.05336426914153,359.1666666666667,145.80714050492253,1.0,1.0,65.0
1075,59.308072487644154,1011.6666666666666,16.287350238076733,0.25,0.0,10.000000000000114
1076,73.70184254606365,814.0909090909091,54.86836237835648,0.8,0.4,32.5
1077,83.67228355607205,717.0833333333334,77.94785472067564,0.18181818181818182,0.18181818181818182,7.5
1078,39.151712887438826,1532.5,31.3581462037113,0.8,0.4,16.25
1079,66.815144766147,898.0,143.55225529402176,0.8888888888888888,0.7777777777777778,80.0
1080,87.52279239385255,685.5357142857143,6.20904951811204,0.0,0.0,5.0
1081,49.252418645558485,1218.2142857142858,21.535447759544766,0.16666666666666666,0.0,12.5
1082,67.72009029345372,886.0,22.863726730347352,0.0,0.0,22.5
1083,83.02288451303885,722.6923076923077,12.575217480209089,0.3333333333333333,0.0,10.0
1084,80.74011774600504,743.125,51.691442312372494,0.2727272727272727,0.0,52.5
1085,58.67970660146699,1022.5,140.0836803485688,0.3333333333333333,0.16666666666666666,6.25
1086,50.941894401698065,1177.8125,22.791085839643532,0.42857142857142855,0.0,15.0
1087,96.7463288223438,620.1785714285714,3.1993701548515925,0.0,0.0,2.5
1088,72.61724659606656,826.25,95.17801304222876,0.5454545454545454,0.36363636363636365,20.0
1089,303.44827586206895,197.72727272727272,167.204469769034,1.0,0.8571428571428571,77.5
1090,136.01236476043277,441.1363636363636,179.54286534381635,1.0,0.875,102.5
1091,59.13150600554358,1014.6875,5.650981662507882,0.0,0.0,3.750000000000057
1092,92.23167718912983,650.5357142857143,4.348498450673543,0.0,0.0,2.5
1093,58.7515299877601,1021.25,15.860721925561894,0.0,0.0,11.249999999999943
1094,65.359477124183,918.0,15.074813431681335,0.4444444444444444,0.0,15.0
1095,61.39852188743605,977.2222222222222,6.712803318663652,0.0,0.0,5.0
1096,56.872037914691944,1055.0,109.79384090193767,0.8571428571428571,0.7142857142857143,90.0
1097,96.2566844919786,623.3333333333334,8.59586463881842,0.0,0.0,5.0
1098,93.17803660565724,643.9285714285714,7.423074889580904,0.0,0.0,5.0
1099,48.837209302325576,1228.5714285714287,55.36981421795284,1.0,1.0,37.5
1100,66.1521499448732,907.0,30.450779957170226,0.6666666666666666,0.1111111111111111,17.5
1101,123.8310222508868,484.53125,179.12377605565794,1.0,1.0,163.75
1102,58.895705521472394,1018.75,30.669610365963244,0.7142857142857143,0.0,25.0
1103,60.845070422535215,986.1111111111111,71.20111491705799,0.625,0.25,65.0
1104,,,,,,
1105,74.11219763252701,809.5833333333334,8.946212730659953,0.0,0.0,8.75
1106,72.80750137892994,824.0909090909091,13.704375846983032,0.1,0.0,10.0
1107,62.92606187729418,953.5,58.653644388051454,0.6666666666666666,0.5555555555555556,37.5
1108,66.1521499448732,907.0,60.413160817821804,0.6666666666666666,0.4444444444444444,41.25
1109,76.57537888859346,783.5416666666666,7.392164583004238,0.09090909090909091,0.0,5.0
1110,57.03723263797202,1051.9444444444443,25.624905901664025,0.75,0.25,27.5
1111,70.07299270072993,856.25,4.366062299143245,0.0,0.0,2.5
1112,73.84615384615384,812.5,27.572219220209185,0.5,0.0,22.5
1113,80.13355592654425,748.75,19.189298232782424,0.09090909090909091,0.0,5.0
1114,132.04086979303116,454.4047619047619,174.8518161083032,1.0,1.0,10.0
1115,55.76532094103979,1075.9375,21.970772488695065,0.7142857142857143,0.0,12.5
1116,74.21984818667417,808.4090909090909,157.78751796782367,0.9,0.8,135.0
1117,142.5742574257426,420.8333333333333,122.76897907135265,,,45.0
1118,61.48590947907771,975.8333333333334,5.137011669140814,0.0,0.0,2.5
1119,49.4408475573867,1213.5714285714287,35.301182266147336,1.0,0.3333333333333333,20.0
1120,114.54239191465467,523.8235294117648,29.792390055017595,0.375,0.3125,2.5
1121,97.37625101433595,616.1666666666666,4.552166761249222,0.0,0.0,2.5
1122,83.75838926174497,716.3461538461538,13.957882547403118,0.0,0.0,10.0
1123,72.17058501913614,831.3636363636364,74.58493965366263,0.5,0.3,42.5
1124,62.4457935819601,960.8333333333334,44.845413490245704,0.625,0.5,20.0
1125,98.98762654668167,606.1363636363636,22.445986591138887,0.5714285714285714,0.14285714285714285,20.0
1126,63.96588486140725,938.0,15.724185193516387,0.0,0.0,13.75
1127,59.85037406483791,1002.5,4.841229182759271,0.0,0.0,3.75
1128,90.7862739800054,660.8928571428571,6.239787574877196,0.0,0.0,5.0
1129,87.08799516177804,688.9583333333334,18.18476735866832,0.0,0.0,17.5
1130,65.77144423129624,912.25,19.69930201809191,0.2222222222222222,0.2222222222222222,7.5
1131,81.48341603551842,736.3461538461538,15.147206667319395,0.0,0.0,10.0
1132,121.05926860025221,495.625,173.07610621245982,1.0,1.0,122.5
1133,99.27611168562565,604.375,1.3975424859373686,0.0,0.0,0.0
1134,188.20014936519792,318.8095238095238,196.82542882744232,1.0,1.0,182.5
1135,124.41093308199812,482.27272727272725,234.7132063949499,1.0,1.0,10.0
1136,61.99770378874856,967.7777777777778,11.083298524033335,0.0,0.0,7.5
1137,101.63749294184076,590.3333333333334,79.60248460667265,0.7857142857142857,0.5,25.0
1138,53.84615384615385,1114.2857142857142,6.081923702116572,0.0,0.0,5.0
1139,73.92887146457575,811.5909090909091,13.910130680090324,0.0,0.0,7.5
1140,71.35135135135135,840.9090909090909,26.29104425968019,0.8,0.2,22.5
1141,89.857045609258,667.7272727272727,2.249885212866287,0.0,0.0,2.5
1142,50.149253731343286,1196.4285714285713,21.2071897704336,0.5,0.0,17.5
1143,81.17249154453214,739.1666666666666,223.5322497239865,1.0,1.0,47.5
1144,77.71181867242309,772.0833333333334,27.03842430484604,0.5454545454545454,0.09090909090909091,22.5
1145,63.6604774535809,942.5,20.0,1.0,0.0,20.0
1146,65.64551422319475,914.0,18.980252896102307,0.5555555555555556,0.1111111111111111,10.0
1147,114.01425178147268,526.25,127.38352522991346,0.9411764705882353,0.8235294117647058,110.0
1148,99.61458642158317,602.3214285714286,77.72125264202127,0.08333333333333333,0.08333333333333333,3.75
1149,76.6773162939297,782.5,24.087514054657724,0.6363636363636364,0.09090909090909091,18.75
1150,47.808764940239044,1255.0,17.87855858683404,0.6666666666666666,0.0,7.5
1151,72.32876712328768,829.5454545454545,115.09787426862856,0.5,0.4,25.0
1152,51.439069197795476,1166.4285714285713,21.291226515412685,0.5,0.16666666666666666,7.5
1153,82.07466514676547,731.0416666666666,4.8367444859349575,0.0,0.0,3.75
1154,67.49156355455568,889.0,14.062361110425233,0.0,0.0,12.5
1155,50.11746280344558,1197.1875,6.304450313072505,0.14285714285714285,0.0,2.5
1156,99.66260057098364,602.03125,3.0896437395758105,0.0,0.0,1.25
1157,71.50595882990248,839.0909090909091,14.193177269087268,0.1,0.0,12.5
1158,90.71274298056156,661.4285714285714,4.697480870702109,0.0,0.0,5.0
1159,59.966685174902835,1000.5555555555555,9.558139185602924,0.25,0.0,2.5000000000002274
1160,106.16533038429638,565.15625,83.3172998898638,1.0,0.8666666666666667,70.0
1161,148.3771251931994,404.375,86.2145156475018,0.5652173913043478,0.34782608695652173,12.5
1162,92.38969499555819,649.4230769230769,78.14036831090134,0.36363636363636365,0.36363636363636365,32.5
1163,98.28009828009829,610.5,75.40004420865195,1.0,0.7142857142857143,47.5
1164,90.87084560370214,660.2777777777778,82.25506100981505,0.2857142857142857,0.14285714285714285,10.0
1165,77.60711398544866,773.125,32.11510872367293,0.18181818181818182,0.18181818181818182,5.0
1166,99.77827050997782,601.3333333333334,1.545603082582617,0.0,0.0,0.0
1167,56.074766355140184,1070.0,27.21442632134655,0.7142857142857143,0.14285714285714285,18.75
1168,80.10269576379974,749.0384615384615,4.1065685584735805,0.0,0.0,2.5
1169,64.22836752899197,934.1666666666666,177.38063278974087,1.0,1.0,147.5
1170,3428.5714285714284,17.5,5.5901699437494745,0.0,0.0,0.0
1171,106.0187741579238,565.9375,3.5216961467452017,0.0,0.0,2.5
1172,66.40841173215274,903.5,16.170961628796228,0.1111111111111111,0.0,8.75
1173,68.64988558352402,874.0,10.198039027185569,0.1111111111111111,0.0,6.25
1174,57.340058401911335,1046.388888888889,29.956243810095373,0.375,0.25,27.5
1175,113.30186059427938,529.5588235294117,75.82504676070418,0.6875,0.5625,57.5
1176,84.00646203554119,714.2307692307693,93.51771024879466,0.4166666666666667,0.25,65.0
1177,89.08685968819599,673.5,9.367496997597597,0.0,0.0,3.75
1178,72.61724659606656,826.25,29.5222373813368,0.1111111111111111,0.1111111111111111,13.75
1179,118.96686668405948,504.3421052631579,2.6707609381821555,0.0,0.0,2.499999999999943
1180,149.06832298136646,402.5,167.64794461410295,0.9,0.9,32.5
1181,79.62840079628401,753.5,99.67572422611235,0.8888888888888888,0.6666666666666666,65.0
1182,140.7624633431085,426.25,129.07835446312868,1.0,1.0,120.0
1183,73.27227310574521,818.8636363636364,20.542739160866667,0.3,0.0,17.5
1184,108.05084745762713,555.2941176470588,36.24753899294382,0.1875,0.125,2.5
1185,77.69085513892637,772.2916666666666,88.56176242537683,0.5454545454545454,0.18181818181818182,15.0
1186,56.97705091005011,1053.0555555555557,20.06163342807532,0.5,0.0,22.5
1187,67.6056338028169,887.5,56.00099205470481,0.5714285714285714,0.14285714285714285,40.0
1188,56.09661082976237,1069.5833333333333,9.727181274940627,0.25,0.0,5.0
1189,73.86681589255736,812.2727272727273,16.357322014042346,0.2,0.0,12.5
1190,112.14953271028037,535.0,106.2981916852566,0.9411764705882353,0.7647058823529411,90.0
1191,120.86874409820585,496.40625,117.11028706282596,0.9285714285714286,0.7142857142857143,77.5
1192,152.15215215215215,394.3421052631579,246.54299575015835,1.0,0.8666666666666667,135.0
1193,73.53760445682451,815.9090909090909,21.72327844608822,0.2,0.0,17.5
1194,75.21367521367522,797.7272727272727,19.84183325974286,0.6,0.0,17.5
1195,62.35565819861432,962.2222222222222,9.162456945817024,0.125,0.0,5.0
1196,57.233704292527825,1048.3333333333333,4.564354645876384,0.0,0.0,2.5
1197,76.43312101910828,785.0,28.192049706728785,0.36363636363636365,0.09090909090909091,15.0
1198,63.29113924050633,948.0,117.80704562970756,1.0,0.8888888888888888,130.0
1199,85.76140736668499,699.6153846153846,12.513306526921108,0.25,0.0,10.0
1200,62.122519413287314,965.8333333333334,17.19980620045858,0.5,0.0,15.0
1201,85.3625170998632,702.8846153846154,9.397532094515858,0.0,0.0,7.5
1202,77.10843373493977,778.125,6.7796417063637415,0.0,0.0,6.25
1203,167.4418604651163,358.3333333333333,124.68293120284483,1.0,1.0,80.0
1204,68.43455945252353,876.75,59.55092358645666,1.0,0.8888888888888888,66.25
1205,76.49956534337872,784.3181818181819,43.36801959931929,0.6,0.3,15.0
1206,64.22263848006422,934.25,11.127106542133943,0.0,0.0,5.0
1207,56.77114133648728,1056.875,14.40214827725364,0.7142857142857143,0.0,13.75
1208,63.34125098970705,947.25,31.313934597875136,0.3333333333333333,0.0,12.5
1209,100.2227171492205,598.6666666666666,5.542763049438631,0.0,0.0,2.5
1210,75.68988173455979,792.7083333333334,9.323935000250104,0.09090909090909091,0.0,7.5
1211,78.55973813420621,763.75,9.60143218483576,0.09090909090909091,0.0,5.0
1212,78.7746170678337,761.6666666666666,7.8616509433805035,0.0,0.0,2.5
1213,88.67775138558986,676.6071428571429,18.288539123322728,0.3076923076923077,0.0,10.0
1214,91.2981455064194,657.1875,132.1542511376384,1.0,0.8,71.25
1215,61.41597952800682,976.9444444444445,5.371966557170476,0.0,0.0,5.0
1216,80.04446914952752,749.5833333333334,51.16184830732977,0.36363636363636365,0.0,47.5
1217,71.6223548562127,837.7272727272727,58.07963327753449,0.6,0.3,20.0
1218,66.18863761720904,906.5,123.4514074443868,0.4444444444444444,0.4444444444444444,38.75
1219,88.47184986595175,678.1818181818181,166.50856826537523,0.8888888888888888,0.8888888888888888,165.0
1220,67.83493499152063,884.5,12.288205727444508,0.1111111111111111,0.0,12.5
1221,53.097345132743364,1130.0,26.487025125521363,0.7142857142857143,0.14285714285714285,11.25
1222,69.9504517633343,857.75,18.955540087267362,0.3333333333333333,0.0,12.5
1223,86.04522890237176,697.3076923076923,5.138611236879764,0.0,0.0,5.0
1224,72.26738934056007,830.25,41.29845638761817,0.5555555555555556,0.2222222222222222,32.5
1225,86.33093525179856,695.0,114.55893679674233,0.875,0.875,80.0
1226,54.84147386461011,1094.0625,32.95208405776484,0.7142857142857143,0.14285714285714285,36.25
1227,73.8272237887721,812.7083333333334,9.26790684147301,0.0,0.0,8.75
1228,67.49156355455568,889.0,18.0,0.2222222222222222,0.0,7.5
1229,77.64896198436236,772.7083333333334,11.201670882308386,0.09090909090909091,0.0,7.5
1230,67.0391061452514,895.0,32.113081446662825,0.5555555555555556,0.0,26.25
1231,81.78720181749338,733.6111111111111,42.000514400142094,0.8571428571428571,0.14285714285714285,40.0
1232,66.42679213949626,903.25,80.7933320268449,0.3333333333333333,0.3333333333333333,21.25
1233,160.57642820380855,373.65384615384613,116.15687082154568,1.0,0.92,43.75
1234,63.139432914352525,950.2777777777778,85.60604570781433,0.75,0.625,40.0
1235,83.5117773019272,718.4615384615385,48.19370432011504,0.6666666666666666,0.16666666666666666,27.5
1236,75.21546095586315,797.7083333333334,17.866936798331032,0.2727272727272727,0.0,15.0
1237,129.3451899757478,463.875,2.011684617428885,0.0,0.0,2.5
1238,54.810162717670565,1094.6875,79.02172861783018,0.7142857142857143,0.42857142857142855,70.00000000000006
1239,108.29103214890017,554.0625,69.07239748083165,0.8,0.4,30.0
1240,68.43455945252353,876.75,27.25,0.1111111111111111,0.0,21.25
1241,53.02402651201326,1131.5625,58.92179005894169,0.8571428571428571,0.5714285714285714,41.25
1242,74.11566535654127,809.5454545454545,12.783964645841122,0.3,0.0,10.0
1243,68.63025450386046,874.25,16.280740155164935,0.2222222222222222,0.0,11.25
1244,83.62369337979094,717.5,3.2522181779399544,0.0,0.0,2.5
1245,74.78753541076487,802.2727272727273,5.97861201725723,0.0,0.0,5.0
1246,75.18796992481202,798.0,79.67747485958625,0.6666666666666666,0.6666666666666666,70.0
1247,92.97520661157024,645.3333333333334,7.6847612555990015,0.0,0.0,5.0
1248,96.59243359270191,621.1666666666666,84.3794340398707,0.8571428571428571,0.7142857142857143,37.5
1249,51.141552511415526,1173.2142857142858,40.082822418852,0.6666666666666666,0.16666666666666666,22.5
1250,61.83796163756083,970.2777777777778,28.295181284993006,0.625,0.125,17.5
1251,83.02104352839434,722.7083333333334,66.41456238824601,0.36363636363636365,0.18181818181818182,18.75
1252,55.23590333716916,1086.25,20.155644370746373,0.5714285714285714,0.0,17.5
1253,63.7356152257303,941.3888888888889,70.58398377416862,0.75,0.0,57.5
1254,93.31919406150583,642.9545454545455,32.87058269352051,0.7777777777777778,0.3333333333333333,25.0
1255,59.29179247872632,1011.9444444444445,86.33572855250229,1.0,1.0,62.499999999999886
1256,63.943161634103014,938.3333333333334,25.81988897471611,0.5,0.0,15.0
1257,91.47835556765587,655.8928571428571,79.10553045760828,0.8461538461538461,0.6153846153846154,41.25
1258,81.24118476727786,738.5416666666666,28.200515903476347,0.09090909090909091,0.0,10.0
1259,70.26883151450626,853.8636363636364,31.231606156912516,0.6,0.3,20.0
1260,103.00429184549357,582.5,12.43734296383275,0.0,0.0,11.25
1261,61.31138234459268,978.6111111111111,23.425742935897816,0.5,0.125,17.5
1262,68.20119352088662,879.75,90.5983581528937,0.6666666666666666,0.4444444444444444,57.5
1263,162.23524109959442,369.8333333333333,59.70389899793443,1.0,1.0,12.5
1264,66.6851903306474,899.75,18.284214503226547,0.1111111111111111,0.0,16.25
1265,79.81580966999232,751.7307692307693,121.09430771488289,0.8333333333333334,0.8333333333333334,85.0
1266,80.93385214007783,741.3461538461538,82.83217152201948,1.0,0.8333333333333334,40.0
1267,85.40925266903915,702.5,5.547001962252291,0.0,0.0,2.5
1268,91.13100081366966,658.3928571428571,19.65340625822965,0.0,0.0,16.25
1269,76.01497264612726,789.3181818181819,97.91630766008859,0.3,0.3,5.0
1270,68.61063464837049,874.5,13.5,0.1111111111111111,0.0,8.75
1271,73.15045719035744,820.2272727272727,29.62750843723358,0.6,0.0,25.0
1272,59.1294826170271,1014.7222222222222,28.172199763351323,0.5,0.125,12.499999999999886
1273,77.28085867620752,776.3888888888889,129.6261242912301,1.0,0.42857142857142855,20.0
1274,69.30953006038331,865.6818181818181,10.340284696433933,0.1,0.0,7.5
1275,64.13301662707839,935.5555555555555,18.362770978931565,0.25,0.0,10.0
1276,70.87248322147651,846.5909090909091,34.28279331319681,0.4,0.2,15.0
1277,93.20388349514563,643.75,11.830272910751347,0.07692307692307693,0.0,8.75
1278,66.6204024982651,900.625,174.30105959230426,0.6666666666666666,0.6666666666666666,92.5
1279,77.81680626857606,771.0416666666666,22.0193648990055,0.09090909090909091,0.0,17.5
1280,53.377814845704755,1124.0625,51.96058452086543,0.7142857142857143,0.2857142857142857,31.25
1281,64.55083378160302,929.5,21.0,0.3333333333333333,0.0,16.25
1282,61.20714083309719,980.2777777777778,128.63840603090836,0.625,0.375,62.5
1283,61.17247238742566,980.8333333333334,16.372402253657082,0.0,0.0,12.5
1284,66.24344465912228,905.75,11.675294428835617,0.0,0.0,7.5
1285,68.22057987492893,879.5,56.25611077918558,0.7777777777777778,0.3333333333333333,47.5
1286,62.59055346276442,958.6111111111111,15.947444549341471,0.25,0.0,10.0
1287,92.63854425144747,647.6785714285714,6.909122186483251,0.0,0.0,2.5
1288,75.02131287297527,799.7727272727273,6.780197222807408,0.0,0.0,2.5
1289,67.87330316742081,884.0,31.26899422750914,0.3333333333333333,0.0,25.0
1290,87.38621586475942,686.6071428571429,16.080354664075323,0.0,0.0,11.25
1291,79.49213359094674,754.7916666666666,13.936550166937137,0.0,0.0,8.75
1292,137.79904306220095,435.4166666666667,157.59531948069466,1.0,1.0,166.25
1293,65.02302898943375,922.75,54.076912818688164,0.6666666666666666,0.3333333333333333,26.25
1294,81.2870448772227,738.125,12.081537222831649,0.2727272727272727,0.0,6.25
1295,82.00455580865604,731.6666666666666,89.74114007645669,0.9090909090909091,0.36363636363636365,36.25
1296,81.52599947739743,735.9615384615385,21.33835616412338,0.08333333333333333,0.0,20.0
1297,141.13873295910184,425.1136363636364,194.35276805441498,1.0,1.0,166.25
1298,57.48502994011976,1043.75,64.8315123994497,0.8571428571428571,0.42857142857142855,37.5
1299,95.36423841059603,629.1666666666666,4.149966532662911,0.0,0.0,2.5
1300,100.92514718250631,594.5,3.7859388972001824,0.0,0.0,2.5
1301,65.63354603463993,914.1666666666666,27.48737083745107,0.625,0.0,27.5
1302,72.62723521320495,826.1363636363636,16.526962693361675,0.1,0.0,15.0
1303,57.55395683453237,1042.5,14.288690166235206,0.25,0.0,10.0
1304,90.98294069861902,659.4642857142857,9.21850678510022,0.0,0.0,6.25
1305,66.26173384870238,905.5,40.87786687193939,0.4444444444444444,0.0,45.0
1306,62.55430060816681,959.1666666666666,31.22498999199199,0.375,0.0,17.5
1307,114.31595660227573,524.8611111111111,2.8225557545696636,0.0,0.0,1.25
1308,44.90177736202058,1336.25,26.329245463299298,0.6,0.2,8.75
1309,76.55502392344498,783.75,48.46067993745032,0.6363636363636364,0.0,48.75
1310,101.5801354401806,590.6666666666666,6.222718234198157,0.0,0.0,5.0
1311,70.4225352112676,852.0,9.0,0.0,0.0,6.25
1312,85.95041322314049,698.0769230769231,10.837694464311825,0.0,0.0,10.0
1313,83.57889097240826,717.8846153846154,15.592347538941912,0.0,0.0,15.0
1314,66.46358349487677,902.75,28.227867436276515,0.7777777777777778,0.0,21.25
1315,81.52599947739743,735.9615384615385,165.43514433834343,0.75,0.75,117.5
1316,79.90012484394506,750.9375,124.43583625206205,0.6666666666666666,0.3333333333333333,122.5
1317,64.57399103139014,929.1666666666666,33.74742788552764,0.625,0.0,17.5
1318,82.40343347639485,728.125,4.463392767839281,0.0,0.0,3.75
1319,64.1711229946524,935.0,45.292260805670615,0.75,0.25,27.5
1320,53.89797882579403,1113.2142857142858,34.890499262342324,0.3333333333333333,0.16666666666666666,37.5
1321,80.98987626546682,740.8333333333334,10.573814617041267,0.09090909090909091,0.0,8.75
1322,63.44171292624901,945.75,56.403124913430105,0.8888888888888888,0.5555555555555556,50.0
1323,75.37688442211055,796.0,85.61687917694735,0.1111111111111111,0.1111111111111111,16.25
1324,57.55395683453237,1042.5,16.677080080157918,0.5714285714285714,0.0,11.25
1325,61.92660550458715,968.8888888888889,32.38464809286594,0.375,0.0,25.0
1326,57.279236276849645,1047.5,100.0,1.0,0.8571428571428571,96.25
1327,92.43466299862447,649.1071428571429,190.44967263327717,0.5,0.4166666666666667,8.75
1328,95.08716323296355,631.0,75.11546667187346,0.21428571428571427,0.21428571428571427,5.0
1329,58.91980360065466,1018.3333333333334,94.38396756511847,0.875,0.75,62.5
1330,75.39267015706805,795.8333333333334,28.963578661637943,0.2727272727272727,0.0,26.25
1331,66.75938803894297,898.75,11.739356881873896,0.1111111111111111,0.0,5.0
1332,185.61484918793502,323.25,98.26017758990669,0.9375,0.875,13.75
1333,72.58729722298598,826.5909090909091,39.446061090268444,0.6,0.1,30.0
1334,69.29133858267717,865.9090909090909,12.444089838185292,0.0,0.0,10.0
1335,81.31352619233776,737.8846153846154,4.887794241207243,0.0,0.0,2.5
1336,90.20134228187919,665.1785714285714,22.149336609589415,0.07692307692307693,0.07692307692307693,5.0
1337,54.37553101104503,1103.4375,10.37857619088476,0.0,0.0,7.5
1338,63.305978898007034,947.7777777777778,10.957268290731122,0.0,0.0,7.5
1339,55.220017256255396,1086.5625,6.839396446324778,0.0,0.0,6.25
1340,71.6223548562127,837.7272727272727,6.436273753866499,0.0,0.0,2.5
1341,63.566804002354324,943.8888888888889,21.41232482289085,0.625,0.0,7.5
1342,55.7006092254134,1077.1875,8.143008887997114,0.0,0.0,3.75
1343,79.69009407858329,752.9166666666666,15.201196955795583,0.0,0.0,11.25
1344,77.4818401937046,774.375,34.14315756243604,0.7272727272727273,0.09090909090909091,27.5
1345,67.84888203546646,884.3181818181819,32.17655324164471,0.6,0.0,30.0
1346,62.051134731399024,966.9444444444445,91.19406792490044,1.0,0.875,62.499999999999886
1347,107.50988142292489,558.0882352941177,2.016369000117954,0.0,0.0,2.5
1348,145.05893019038984,413.625,7.179615240387189,0.0,0.0,5.0
1349,90.61488673139159,662.1428571428571,26.572964625340393,0.15384615384615385,0.07692307692307693,8.75
1350,72.01309328968904,833.1818181818181,15.30340533593857,0.3,0.1,2.5
1351,61.276595744680854,979.1666666666666,16.832508230603462,0.125,0.0,12.5
1352,70.36247334754798,852.7272727272727,24.319243817082608,0.5,0.0,20.0
1353,101.91082802547771,588.75,5.153882032022076,0.0,0.0,3.75
1354,57.00712589073634,1052.5,3.75,0.0,0.0,3.75
1355,78.73154729360306,762.0833333333334,20.408161493764094,0.2727272727272727,0.09090909090909091,10.0
1356,94.0649496080627,637.8571428571429,3.3881546358946926,0.0,0.0,2.5
1357,92.3330585325639,649.8214285714286,13.411891236161,0.0,0.0,12.5
1358,60.62307044625316,989.7222222222222,7.677930533936226,0.0,0.0,5.0
1359,88.36023789294818,679.0384615384615,124.69400416441928,0.9166666666666666,0.8333333333333334,67.5
1360,64.15206415206414,935.2777777777778,18.425693279752224,0.5,0.0,10.0
1361,53.85694249649369,1114.0625,18.78902189444677,0.8571428571428571,0.0,15.0
1362,100.3659174072138,597.8125,54.578462727984565,0.7333333333333333,0.4,13.75
1363,58.87162714636141,1019.1666666666666,13.944333775567927,0.125,0.0,10.0
1364,105.34979423868313,569.53125,3.2135880939379895,0.0,0.0,1.25
1365,71.10153514678157,843.8636363636364,25.923042495652492,0.8,0.0,22.5
1366,53.841839596186205,1114.375,14.072912811497128,0.42857142857142855,0.0,10.0
1367,64.1025641025641,936.0,39.5,0.2222222222222222,0.0,27.5
1368,73.06947135344589,821.1363636363636,9.556270928013019,0.2,0.0,2.5
1369,77.90100081146875,770.2083333333334,14.735810029388347,0.6363636363636364,0.0,12.5
1370,68.47360912981455,876.25,14.545188207788856,0.1111111111111111,0.0,11.25
1371,79.53603976801989,754.375,16.492580402512317,0.09090909090909091,0.0,10.0
1372,71.8562874251497,835.0,5.477225575051661,0.0,0.0,5.0
1373,55.73294629898403,1076.5625,8.094896154367886,0.0,0.0,5.0
1374,56.42080517190714,1063.4375,48.298186754266474,0.8571428571428571,0.42857142857142855,38.75000000000006
1375,71.13218731475993,843.5,25.029982021567655,0.7777777777777778,0.2222222222222222,20.0
1376,94.67455621301775,633.75,140.69581550280733,1.0,1.0,27.5
1377,86.42659279778393,694.2307692307693,131.45774626568965,0.75,0.6666666666666666,30.0
1378,183.80743982494528,326.42857142857144,117.60904622987995,1.0,0.6666666666666666,7.5
1379,77.04654895666131,778.75,36.149285377906615,0.7272727272727273,0.18181818181818182,22.5
1380,116.4420485175202,515.2777777777778,234.28361387087034,1.0,1.0,211.25
1381,,,,,,
1382,66.51884700665188,902.0,18.0208212909401,0.1111111111111111,0.0,6.25
1383,141.13277623026926,425.13157894736844,67.84499401795536,0.125,0.125,2.5
1384,97.79951100244499,613.5,2.857738033247041,0.0,0.0,2.5
1385,73.76362112321878,813.4090909090909,32.496026457663866,0.2,0.1,30.0
1386,102.37270061316983,586.09375,5.151512975573293,0.0,0.0,2.5
1387,159.87210231814547,375.3,147.89577411136534,1.0,1.0,72.5
1388,69.14614981665794,867.7272727272727,27.040679486792452,0.3,0.0,17.5
1389,91.69638308711156,654.3333333333334,98.65540476268337,0.5714285714285714,0.2857142857142857,25.0
1390,100.53057805082379,596.8333333333334,10.506611674982992,0.35714285714285715,0.0,5.0
1391,133.12788906009246,450.69444444444446,183.59036065298025,1.0,1.0,185.0
1392,64.22263848006422,934.25,6.025985396596975,0.0,0.0,3.75
1393,91.03224058520726,659.1071428571429,14.286830313549723,0.15384615384615385,0.0,11.25
1394,75.45192559601782,795.2083333333334,23.484443728183603,0.36363636363636365,0.0,22.5
1395,60.36892118501956,993.8888888888889,41.78501710327504,0.75,0.375,42.5
1396,71.17821515233216,842.9545454545455,30.20419488133647,0.7,0.1,30.0
1397,68.76790830945559,872.5,18.096961070853858,0.2222222222222222,0.0,15.0
1398,151.65876777251185,395.625,190.06886087678853,1.0,0.9565217391304348,28.75
1399,61.32879045996592,978.3333333333334,12.472191289246473,0.25,0.0,5.0
1400,58.2210242587601,1030.5555555555557,29.457544255763185,0.625,0.125,10.0
1401,102.20920947564547,587.03125,6.85900127113999,0.0,0.0,5.0
1402,96.28242845680664,623.1666666666666,119.25975385220652,1.0,0.8571428571428571,67.5
1403,72.36842105263158,829.0909090909091,12.073295441175842,0.1,0.0,5.0
1404,78.85304659498208,760.9090909090909,11.835651423901398,0.2,0.0,7.5
1405,55.42725173210162,1082.5,15.461646096066227,0.5714285714285714,0.0,16.25
1406,58.87764489420423,1019.0625,17.894547877775512,0.42857142857142855,0.0,6.25
1407,65.52006552006551,915.75,12.651580928879994,0.2222222222222222,0.0,10.0
1408,72.82758620689656,823.8636363636364,5.152629113070288,0.0,0.0,2.5
1409,77.02594276544531,778.9583333333334,27.242321803073654,0.18181818181818182,0.0,17.5
1410,66.83375104427736,897.75,29.399192165772174,0.4444444444444444,0.0,16.25
1411,73.76362112321878,813.4090909090909,9.30986324921093,0.0,0.0,10.0
1412,59.097127222982216,1015.2777777777778,6.394924685122956,0.0,0.0,4.999999999999886
1413,71.50595882990248,839.0909090909091,51.2266879050267,0.8,0.4,52.5
1414,149.49688548155245,401.34615384615387,152.8593351135643,1.0,1.0,15.0
1415,59.866962305986696,1002.2222222222222,13.304366683142277,0.375,0.0,5.0
1416,60.589060308555396,990.2777777777778,27.69989080515091,0.125,0.0,15.0
1417,78.86089813800656,760.8333333333334,7.383352144445562,0.0,0.0,6.25
1418,65.60962274466922,914.5,12.932517156377562,0.1111111111111111,0.0,6.25
1419,190.68255687973996,314.65909090909093,155.77207901024354,1.0,0.9473684210526315,120.0
1420,66.6851903306474,899.75,15.101738310538956,0.3333333333333333,0.0,13.75
1421,71.08239095315024,844.0909090909091,9.785931882550448,0.0,0.0,7.5
1422,75.11737089201878,798.75,24.206145913796355,0.18181818181818182,0.0,18.75
1423,55.86267093395403,1074.0625,20.801799050803275,0.7142857142857143,0.14285714285714285,10.0
1424,56.48535564853557,1062.2222222222222,27.32124845763734,0.5,0.0,15.0
1425,152.17965653896962,394.2708333333333,63.66202739969007,0.8260869565217391,0.4782608695652174,33.75
1426,84.3585237258348,711.25,36.989581866610315,0.36363636363636365,0.0,33.75
1427,69.59043131569409,862.1875,31.135728572654276,0.2857142857142857,0.0,31.25
1428,288.0886426592798,208.26923076923077,98.04524375249015,0.7,0.7,80.0
1429,66.06110652353426,908.25,28.063543967218397,0.3333333333333333,0.0,22.5
1430,50.526315789473685,1187.5,41.035698744246716,0.8333333333333334,0.3333333333333333,27.5
1431,67.6246830092984,887.25,51.70166825161447,0.4444444444444444,0.2222222222222222,42.5
1432,170.8185053380783,351.25,122.50637738501617,1.0,1.0,16.25
1433,69.93006993006993,858.0,13.171939872319491,0.1111111111111111,0.0,1.25
1434,82.91256975817167,723.6538461538462,13.031595650844165,0.25,0.0,10.0
1435,67.00791065611912,895.4166666666666,19.65412735845126,0.25,0.0,13.75
1436,74.36619718309859,806.8181818181819,139.7241231087617,1.0,0.9,117.5
1437,70.04510480233483,856.5909090909091,46.603656792641075,0.4,0.0,37.5
1438,75.38549400342661,795.9090909090909,23.866882896045592,0.6,0.0,25.0
1439,84.3585237258348,711.25,140.436447667026,0.45454545454545453,0.45454545454545453,7.5
1440,66.11570247933884,907.5,30.31088913245535,0.6666666666666666,0.4444444444444444,22.5
1441,69.98939554612937,857.2727272727273,12.081848963638194,0.1,0.0,10.0
1442,79.75630019385213,752.2916666666666,21.9482899232618,0.0,0.0,16.25
1443,51.851851851851855,1157.142857142857,16.444092047459055,0.0,0.0,15.0
1444,59.24300603400987,1012.7777777777778,44.2757214077065,0.5,0.25,25.0
1445,119.73807296538821,501.09375,56.11072166651842,0.7142857142857143,0.5714285714285714,42.5
1446,63.3616896450572,946.9444444444445,47.98405084819819,0.625,0.375,20.0
1447,69.74900924702774,860.2272727272727,45.25752756893478,0.6,0.3,22.5
1448,47.67309875141884,1258.5714285714287,5.802884574739972,0.0,0.0,5.0
1449,78.19712191148521,767.2916666666666,152.12199850960266,1.0,0.9090909090909091,131.25
1450,86.64259927797833,692.5,135.44442516284053,0.8333333333333334,0.6666666666666666,90.0
1451,60.544904137235115,991.0,107.12842759977391,1.0,0.6666666666666666,42.5
1452,76.78883071553228,781.3636363636364,34.31742925123068,0.3,0.0,22.5
1453,221.29086336965634,271.1363636363636,131.1481797102892,0.9444444444444444,0.7777777777777778,85.0
1454,73.5820132856413,815.4166666666666,7.55764881134044,0.0,0.0,7.5
1455,61.224489795918366,980.0,12.133516482134198,0.125,0.0,12.5
1456,171.76317501626545,349.3181818181818,143.61442582757877,0.8571428571428571,0.7142857142857143,147.5
1457,62.93706293706293,953.3333333333334,8.498365855987975,0.125,0.0,7.5
1458,87.86257392283864,682.8846153846154,13.93136175098064,0.08333333333333333,0.0,7.5
1459,79.69009407858329,752.9166666666666,12.617503274772266,0.18181818181818182,0.0,7.5
1460,73.23162274618585,819.3181818181819,19.629838983353803,0.0,0.0,7.5
1461,63.20779562812747,949.25,12.044189470445904,0.0,0.0,10.0
1462,79.36070542849271,756.0416666666666,3.300620732865596,0.0,0.0,2.5
1463,60.98249576510446,983.8888888888889,12.196943555611194,0.25,0.0,5.0
1464,104.97539639147075,571.5625,19.362395093324587,0.13333333333333333,0.0,20.0
1465,122.28479485116654,490.6578947368421,7.063718700773442,0.0,0.0,5.0
1466,100.61486864169926,596.3333333333334,19.46934913024972,0.21428571428571427,0.0,12.5
1467,111.02544333076331,540.4166666666666,66.58458488602632,0.17647058823529413,0.058823529411764705,5.0
1468,67.68189509306261,886.5,40.68476373287671,0.4444444444444444,0.0,35.0
1469,73.00884955752213,821.8181818181819,44.64622183306155,0.7,0.0,32.5
1470,92.08002192381474,651.6071428571429,2.92878919051013,0.0,0.0,3.75
1471,82.92542470486612,723.5416666666666,18.127394477849144,0.18181818181818182,0.0,11.25
1472,49.18032786885246,1220.0,56.72615924648118,1.0,0.8333333333333334,57.5
1473,65.21739130434783,920.0,62.55997122761486,0.6666666666666666,0.2222222222222222,48.75
1474,77.23815096547688,776.8181818181819,49.78466025488388,0.6,0.2,30.0
1475,79.01234567901234,759.375,20.00325494346691,0.18181818181818182,0.0,13.75
1476,85.50287750068512,701.7307692307693,9.218742164774525,0.08333333333333333,0.0,5.0
1477,95.97440682484671,625.1666666666666,5.66176258382101,0.0,0.0,5.0
1478,86.78720445062588,691.3461538461538,5.51356584108902,0.0,0.0,5.0
1479,76.85589519650655,780.6818181818181,17.551576887552564,0.1,0.0,17.5
1480,76.43312101910828,785.0,13.44179371147386,0.0,0.0,12.5
1481,66.66666666666667,900.0,32.93933818400121,0.8888888888888888,0.2222222222222222,26.25
1482,69.9912510936133,857.25,32.04391517901644,0.4444444444444444,0.1111111111111111,30.0
1483,167.77350576721426,357.625,110.94896067561876,0.9375,0.9375,38.75
1484,56.81220410310363,1056.111111111111,73.3911808877522,0.625,0.5,30.0
1485,90.66378845116027,661.7857142857143,98.29087922475568,0.7692307692307693,0.7692307692307693,66.25
1486,49.63072378138848,1208.9285714285713,121.87418236251109,1.0,1.0,110.0
1487,62.11180124223603,966.0,12.257650672131263,0.3333333333333333,0.0,3.75
1488,85.24590163934427,703.8461538461538,8.413324174702831,0.0,0.0,7.5
1489,186.9741352446245,320.9,157.98240408349278,0.9565217391304348,0.9130434782608695,115.0
1490,86.64259927797833,692.5,4.803844614152614,0.0,0.0,5.0
1491,84.39275087909115,710.9615384615385,26.52173385855279,0.08333333333333333,0.08333333333333333,15.0
1492,64.1711229946524,935.0,15.456030825826172,0.125,0.0,10.0
1493,71.64179104477611,837.5,51.97355096585185,0.5555555555555556,0.3333333333333333,13.75
1494,94.11764705882354,637.5,1.3363062095621219,0.0,0.0,0.0
1495,61.96213425129088,968.3333333333334,75.28648986076821,1.0,1.0,65.0
1496,58.7915078933043,1020.5555555555555,9.262962222518379,0.25,0.0,7.5
1497,,,,,,
1498,86.91153647180548,690.3571428571429,4.3153735619980615,0.0,0.0,2.5
1499,48.40103716508211,1239.642857142857,32.98886639644425,0.6666666666666666,0.3333333333333333,12.5
1500,73.59910788960134,815.2272727272727,9.011012546181368,0.0,0.0,7.5
1501,77.7537796976242,771.6666666666666,17.027347284752125,0.18181818181818182,0.0,18.75
1502,76.23447877562808,787.0454545454545,14.917126437656307,0.1,0.0,10.0
1503,106.43015521064302,563.75,111.69054026959618,0.4,0.4,2.5
1504,112.94117647058823,531.25,2.3935677693908453,0.0,0.0,2.5
1505,53.70629370629371,1117.1875,33.15299524552797,0.5714285714285714,0.42857142857142855,12.5
1506,69.60556844547564,862.0,20.670026608594387,0.2222222222222222,0.0,16.25
1507,96.74818597151304,620.1666666666666,144.10779144638764,0.7857142857142857,0.6428571428571429,90.0
1508,88.70116156282998,676.4285714285714,45.23464899153917,0.46153846153846156,0.46153846153846156,5.0
1509,112.92554663714364,531.3235294117648,56.17801045009949,0.125,0.125,0.0
1510,60.845070422535215,986.1111111111111,14.865653511399598,0.25,0.0,10.0
1511,64.36041834271923,932.25,15.429274124209472,0.3333333333333333,0.0,5.0
1512,94.0649496080627,637.8571428571429,2.64864231681988,0.0,0.0,2.5
1513,65.80751302440362,911.75,12.095970403402944,0.2222222222222222,0.0,8.75
1514,64.46414182111201,930.75,3.17214438511238,0.0,0.0,2.5
1515,54.221971194577804,1106.5625,88.7846543257899,0.7142857142857143,0.14285714285714285,85.00000000000006
1516,82.45061551674777,727.7083333333334,7.392164583004239,0.0,0.0,7.5
1517,78.38479809976246,765.4545454545455,106.31117587395259,0.3,0.3,5.0
1518,71.89542483660131,834.5454545454545,52.29742499547205,0.7,0.2,40.0
1519,89.52837729816147,670.1785714285714,21.054018231051987,0.07692307692307693,0.0,18.75
1520,61.7672290534744,971.3888888888889,51.33104853020125,0.625,0.25,30.0
1521,72.26936764303312,830.2272727272727,29.627508437233583,0.3,0.2,17.5
1522,59.83379501385041,1002.7777777777778,13.511540563350348,0.0,0.0,12.499999999999886
1523,180.1125703564728,333.125,194.85604996595137,1.0,1.0,212.5
1524,78.99067471201316,759.5833333333334,124.15897627191073,1.0,0.5454545454545454,77.5
1525,84.03851765392471,713.9583333333334,13.167919244217067,0.09090909090909091,0.0,7.5
1526,103.0319291655487,582.34375,4.878904686248749,0.0,0.0,5.0
1527,109.61848468565287,547.3529411764706,3.7837295089025313,0.0,0.0,2.5
1528,70.53165909698103,850.6818181818181,16.379411587933863,0.0,0.0,12.5
1529,66.79654884497634,898.25,4.616546328154847,0.0,0.0,2.5
1530,100.3921568627451,597.65625,44.418717461645606,0.2,0.2,2.5
1531,76.6773162939297,782.5,11.57976291168818,0.1,0.0,10.0
1532,65.08474576271186,921.875,23.576670142325018,0.42857142857142855,0.0,7.5
1533,100.78387458006718,595.3333333333334,55.40657802904714,0.7142857142857143,0.21428571428571427,15.0
1534,92.14230867673407,651.1666666666666,5.691123692987958,0.0,0.0,5.0
1535,68.68918145392101,873.5,25.59785147234041,0.3333333333333333,0.0,20.0
1536,62.95907660020986,953.0,55.382759050087074,0.8888888888888888,0.6666666666666666,45.0
1537,70.68273092369478,848.8636363636364,57.092067156754844,0.5,0.0,32.5
1538,69.00156821745949,869.5454545454545,18.58084857815427,0.2,0.0,2.5
1539,70.71302298173246,848.5,24.804233509624925,0.3333333333333333,0.0,12.5
1540,112.49999999999999,533.3333333333334,108.09203897091075,0.7857142857142857,0.5714285714285714,100.0
1541,75.42857142857143,795.4545454545455,12.828332537881895,0.1,0.0,10.0
1542,60.65711878685762,989.1666666666666,7.905694150420948,0.0,0.0,7.5
1543,85.05997818974919,705.3846153846154,5.0807095437011185,0.0,0.0,2.5
1544,80.53691275167785,745.0,6.535161308899218,0.0,0.0,3.75
1545,103.00429184549357,582.5,4.759858191164943,0.0,0.0,2.5
1546,94.31490699502227,636.1666666666666,3.96512575112344,0.0,0.0,2.5
1547,142.16478190630048,422.04545454545456,187.99274097995655,1.0,1.0,182.5
1548,96.12817089452604,624.1666666666666,101.3177071285063,1.0,0.8571428571428571,50.0
1549,83.28884143085959,720.3846153846154,4.985185152621431,0.0,0.0,5.0
1550,71.02693104468777,844.75,28.40444507467097,0.5555555555555556,0.2222222222222222,20.0
1551,63.62297496318115,943.0555555555555,16.57381543352922,0.625,0.0,17.5
1552,66.28003314001657,905.25,13.059957886608977,0.2222222222222222,0.0,11.25
1553,69.18238993710692,867.2727272727273,24.108055647592945,0.3,0.0,10.0
1554,83.38158656629994,719.5833333333334,31.27221432660132,0.45454545454545453,0.0,25.0
1555,78.19905213270142,767.2727272727273,11.354541815269815,0.0,0.0,7.5
1556,99.79209979209979,601.25,4.14578098794425,0.0,0.0,2.5
1557,64.65517241379311,928.0,17.05872210923198,0.6666666666666666,0.0,16.25
1558,71.87585080315819,834.7727272727273,33.88574629033412,0.3,0.1,32.5
1559,69.02502157031924,869.25,8.59142013871979,0.1111111111111111,0.0,5.0
1560,84.6675712347354,708.6538461538462,7.0448688784670015,0.0,0.0,5.0
1561,82.59248637797533,726.4583333333334,23.328682572223308,0.4,0.0,16.25
1562,145.4928835002636,412.39130434782606,111.25635854048963,0.9090909090909091,0.7727272727272727,55.0
1563,190.62748212867356,314.75,149.7933993872894,1.0,1.0,150.0
1564,60.01667129758267,999.7222222222222,16.68517490853467,0.125,0.0,12.5
1565,69.38421509106678,864.75,35.83730598133738,0.6666666666666666,0.2222222222222222,28.75
1566,57.37051792828686,1045.8333333333333,27.78888666755511,0.625,0.25,22.5
1567,73.04925290536801,821.3636363636364,24.3404740645278,0.1,0.0,25.0
1568,191.027496382055,314.09090909090907,213.31600738872004,1.0,1.0,240.0
1569,76.85589519650655,780.6818181818181,10.2851895445316,0.0,0.0,7.5
1570,114.73565804274465,522.9411764705883,267.4707725843166,1.0,1.0,5.0
1571,,,,,,
1572,62.93706293706293,953.3333333333334,12.076147288491198,0.125,0.0,10.0
