,heartrate,RRinterval,RRsd,pNN20,pNN50,RRmad
0,73.70184254606365,814.0909090909091,13.537520556214027,0.2,0.0,10.0
1,60.86221470836856,985.8333333333335,32.723589860119766,0.625,0.0,27.5
2,62.918729973783854,953.6111111111113,58.714364027977645,0.5,0.375,22.500000000000114
3,88.03611738148985,681.5384615384615,2.307692307692308,0.0,0.0,2.5
4,88.35130160399684,679.1071428571429,6.0213268928883465,0.0,0.0,3.75
5,63.81281574049455,940.25,9.839334327077212,0.0,0.0,7.5
6,72.8677891250345,823.4090909090909,15.235750692813065,0.3,0.0,10.0
7,88.18541548897682,680.3846153846154,7.956984948298922,0.0,0.0,5.0
8,64.13301662707839,935.5555555555555,12.063361528115811,0.25,0.0,10.0
9,72.62723521320495,826.1363636363636,10.355259772631381,0.1,0.0,7.5
10,76.6773162939297,782.5,18.846971463164397,0.3636363636363637,0.0,8.75
11,86.40265854333981,694.4230769230769,42.326044970446226,0.4166666666666667,0.08333333333333333,25.0
12,86.88387635756055,690.5769230769231,14.843861919540698,0.16666666666666666,0.0,12.5
13,63.86375731772219,939.5,17.204650534085253,0.1111111111111111,0.0,12.5
14,65.21739130434783,920.0,25.519600310349695,0.8888888888888888,0.1111111111111111,15.0
15,70.79646017699116,847.5,13.41640786499874,0.3333333333333333,0.0,11.25
16,71.13985448666128,843.4090909090909,25.074269845091454,0.6,0.1,15.0
17,60.55508830950379,990.8333333333335,45.246239868327415,0.625,0.375,27.5
18,71.50595882990248,839.0909090909091,5.464006945532413,0.0,0.0,2.5
19,45.728802794537955,1312.0833333333333,75.58682461616942,0.8,0.6,58.75
20,59.016393442622956,1016.6666666666665,15.184055965240516,0.25,0.125,10.0
21,51.71020737947751,1160.3125,53.52332289525754,1.0,0.42857142857142855,38.75
22,60.23424428332404,996.1111111111113,105.68632250879058,0.875,0.625,87.5
23,59.35085007727975,1010.9375,17.58628282923938,0.14285714285714285,0.0,13.75
24,68.86657101865136,871.25,61.77833358063328,0.7777777777777778,0.5555555555555556,45.0
25,71.31280388978931,841.3636363636364,23.940352876843075,0.4,0.0,12.5
26,83.26105810928014,720.625,41.18207791827249,0.7272727272727273,0.18181818181818185,31.25
27,61.12054329371818,981.6666666666665,85.08982182245876,0.625,0.625,17.5
28,71.293545773697,841.5909090909091,22.645306740147554,0.5,0.0,22.5
29,72.07207207207206,832.5,34.37758254761643,0.6,0.3,15.0
30,73.74301675977654,813.6363636363636,29.39472038949953,0.5,0.0,25.0
31,88.46044797278141,678.2692307692307,55.79309834097052,0.25,0.0,42.5
32,64.42953020134229,931.25,5.9424321620023575,0.0,0.0,5.0
33,80.37957019257604,746.4583333333335,19.45770876941978,0.0,0.0,11.25
34,134.17815877748788,447.16666666666674,198.08219393866668,1.0,1.0,5.0
35,72.90803645401823,822.9545454545455,36.31957557912721,0.6,0.1,25.0
36,93.24009324009323,643.5,40.61814044652135,0.2857142857142857,0.07142857142857142,30.0
37,62.46385193753614,960.5555555555555,11.94767398200365,0.0,0.0,5.0
38,80.22284122562675,747.9166666666665,40.63087564347531,0.4545454545454545,0.0,20.0
39,79.86688851913478,751.25,5.543389456520864,0.0,0.0,3.75
40,66.79654884497634,898.25,9.086390922693123,0.0,0.0,5.0
41,64.76761619190404,926.3888888888887,69.29316856571465,0.875,0.25,32.5
42,75.70977917981071,792.5,112.56016909487415,1.0,0.8181818181818182,68.75
43,149.59349593495938,401.0869565217391,165.79981723477582,1.0,1.0,15.0
44,62.99212598425196,952.5,27.284509239574863,0.375,0.25,12.5
45,54.02363534046145,1110.625,18.360538526960475,0.42857142857142855,0.0,12.5
46,71.301247771836,841.5,7.0,0.0,0.0,3.75
47,64.05693950177937,936.6666666666665,52.18822770617061,0.875,0.375,20.0
48,54.29864253393665,1105.0,41.551925346486655,1.0,0.42857142857142855,38.75
49,62.717770034843205,956.6666666666665,8.858454843945541,0.25,0.0,8.75
50,59.243006034009866,1012.7777777777777,24.393887111222394,0.875,0.0,15.0
51,80.40201005025126,746.25,4.621056877670591,0.0,0.0,5.0
52,70.53165909698103,850.6818181818181,4.5340766689227285,0.0,0.0,2.5
53,55.44554455445545,1082.142857142857,14.042573750955356,0.16666666666666666,0.0,7.5
54,72.62723521320495,826.1363636363636,30.252040433881863,0.9,0.3,25.0
55,92.71523178807949,647.1428571428571,7.1249776225928585,0.07692307692307693,0.0,6.25
56,69.98939554612937,857.2727272727273,7.866394681762173,0.1,0.0,2.5
57,48.02744425385935,1249.2857142857142,33.07767605290953,0.6666666666666666,0.5,22.5
58,69.66618287373004,861.25,7.925433742073679,0.0,0.0,5.0
59,83.73590982286635,716.5384615384614,39.00860927581418,0.3333333333333333,0.0,32.5
60,69.34594168636721,865.2272727272727,18.630819574472,0.1,0.0,17.5
61,67.64374295377678,887.0,33.16247879758086,0.7777777777777778,0.1111111111111111,23.75
62,93.82853951410222,639.4642857142858,20.68424545890136,0.38461538461538464,0.07692307692307693,13.75
63,55.523423944476576,1080.625,20.86975982133,0.5714285714285714,0.14285714285714285,20.0
64,74.11566535654126,809.5454545454545,14.840752470285913,0.1,0.0,10.0
65,64.4776119402985,930.5555555555555,65.31736388351385,0.625,0.5,45.0
66,127.73951158422042,469.7058823529412,187.63207574333043,1.0,1.0,7.5
67,75.05863956215794,799.375,35.386629419410184,0.3636363636363637,0.0,36.25
68,92.44992295839754,649.0,4.636809247747852,0.0,0.0,5.0
69,92.20636663007684,650.7142857142858,20.16513459070444,0.3076923076923077,0.2307692307692308,8.75
70,86.33093525179855,695.0,7.844645405527363,0.0,0.0,7.5
71,73.55809417665088,815.6818181818181,89.26525149220687,0.2,0.2,7.5
72,75.68988173455979,792.7083333333335,91.01544244736105,0.6363636363636364,0.5454545454545454,22.5
73,60.8793686583991,985.5555555555555,114.25955939692855,0.75,0.5,117.5
74,67.98866855524079,882.5,37.06413360649349,0.7777777777777778,0.1111111111111111,26.25
75,81.98121263877029,731.875,16.77439144450055,0.18181818181818185,0.0,12.5
76,77.4193548387097,775.0,15.309310892394864,0.2727272727272727,0.0,6.25
77,49.51370468611848,1211.7857142857142,7.160692019915508,0.0,0.0,7.5
78,156.08740894901146,384.4,108.9685275664492,1.0,1.0,107.5
79,95.94882729211086,625.3333333333334,18.093890927296126,0.35714285714285715,0.0,12.5
80,75.9493670886076,790.0,25.14541044935768,0.3636363636363637,0.18181818181818185,21.25
81,61.944364783481504,968.6111111111113,20.95335796182901,0.625,0.0,20.0
82,74.84407484407484,801.6666666666665,160.45508198038894,0.7142857142857143,0.7142857142857143,160.0
83,93.92121054004696,638.8333333333334,87.07691363897146,0.35714285714285715,0.21428571428571427,7.5
84,67.07657909446618,894.5,21.903196113809514,0.3333333333333333,0.0,11.25
85,83.53413654618473,718.2692307692308,6.308161333406433,0.0,0.0,2.5
86,176.35782747603835,340.2173913043478,70.15477083887863,1.0,0.9523809523809524,30.0
87,73.29261521377012,818.6363636363636,30.120282285507844,0.3,0.0,25.0
88,68.43455945252353,876.75,2.75,0.0,0.0,2.5
89,72.68722466960352,825.4545454545455,3.81655809630606,0.0,0.0,2.5
90,165.38563477338988,362.7884615384616,126.1872976873391,1.0,1.0,32.5
91,90.27404621171414,664.6428571428571,92.13662769640152,0.9230769230769232,0.6923076923076923,41.25
92,76.99037620297463,779.3181818181819,3.214121732666125,0.0,0.0,2.5
93,58.60010851871947,1023.8888888888887,23.396079654717287,0.5,0.0,17.5
94,151.8987341772152,395.0,4.4487826050130455,0.0,0.0,2.5
95,72.0504353047133,832.75,30.871710351064127,0.3333333333333333,0.0,23.75
96,91.4534567229178,656.0714285714286,2.4484480715718013,0.0,0.0,2.5
97,170.8860759493671,351.11111111111114,122.69888113629548,1.0,0.9411764705882352,20.0
98,55.749128919860624,1076.25,19.645292056877143,0.7142857142857143,0.0,11.25
99,79.53603976801989,754.375,17.88636002656773,0.0,0.0,15.0
100,88.23529411764706,680.0,9.161253813129042,0.0,0.0,3.75
101,55.99300087489064,1071.5625,71.36982796497409,0.8571428571428571,0.5714285714285714,65.0
102,57.674977470711916,1040.3125,36.08664702836772,0.7142857142857143,0.2857142857142857,36.250000000000064
103,64.82982171799027,925.5,6.689544080129826,0.0,0.0,3.75
104,97.03504043126684,618.3333333333334,11.352924243950934,0.0,0.0,10.0
105,74.62106490478041,804.0625,66.71929888533002,0.8333333333333334,0.5,32.5
106,45.48325963360707,1319.1666666666667,28.783193398617566,1.0,0.6,26.25
107,104.83619344773793,572.3214285714286,115.83726379569515,1.0,0.9230769230769232,62.5
108,71.89542483660131,834.5454545454545,55.563417717323254,0.5,0.5,35.0
109,81.6557981287213,734.7916666666665,19.95981205378002,0.2727272727272727,0.0,12.5
110,66.46358349487677,902.75,52.18297136039687,0.7777777777777778,0.6666666666666666,31.25
111,81.40192198982476,737.0833333333335,52.07999989332651,0.6363636363636364,0.18181818181818185,33.75
112,71.1590296495957,843.1818181818181,48.58323351231777,0.5,0.1,10.0
113,66.39004149377594,903.75,16.63016836956259,0.1111111111111111,0.0,6.25
114,57.485029940119766,1043.75,14.197270864500714,0.42857142857142855,0.0,7.5
115,76.05877268798615,788.8636363636364,5.5762927938115,0.0,0.0,5.0
116,55.331412103746395,1084.375,7.680128579652817,0.14285714285714285,0.0,6.25
117,117.47430249632893,510.75,252.7524727871124,1.0,1.0,241.25
118,89.12466843501328,673.2142857142858,78.16779440173973,0.3076923076923077,0.3076923076923077,3.75
119,79.55801104972377,754.1666666666665,100.06942034852051,0.9090909090909092,0.9090909090909092,100.0
120,55.475296157180004,1081.5625,17.630650689920664,0.2857142857142857,0.0,16.25
121,68.68918145392101,873.5,9.886859966642595,0.0,0.0,8.75
122,79.07742998352553,758.75,58.97121472944802,0.6363636363636364,0.4545454545454545,26.25
123,86.28318584070797,695.3846153846154,11.428967660079714,0.0,0.0,7.5
124,101.26582278481013,592.5,270.0,1.0,1.0,270.0
125,67.01830592615575,895.2777777777777,6.060395619242064,0.0,0.0,2.5
126,74.47633824670287,805.625,80.2121211226832,0.8333333333333334,0.8333333333333334,42.5
127,64.034151547492,937.0,11.715374513859981,0.2222222222222222,0.0,11.25
128,68.29823562891292,878.5,12.757350822173073,0.1111111111111111,0.0,5.0
129,54.961832061068705,1091.6666666666667,5.137011669140813,0.0,0.0,1.25
130,63.79208505611341,940.5555555555555,80.73256414595195,0.625,0.5,77.5
131,105.6910569105691,567.6923076923077,37.125845476795064,0.0,0.0,5.0
132,68.72852233676976,873.0,41.84495190581536,0.3333333333333333,0.1111111111111111,10.0
133,52.761747732893646,1137.1875,15.433197781082182,0.42857142857142855,0.0,12.5
134,43.90243902439024,1366.6666666666667,2.3570226039551585,0.0,0.0,1.25
135,75.51487414187643,794.5454545454545,11.619839119240195,0.3,0.0,2.5
136,71.13218731475995,843.5,39.35733730830886,0.6666666666666666,0.2222222222222222,18.75
137,89.60000000000002,669.6428571428571,19.636362562701823,0.15384615384615385,0.0,10.0
138,87.12650097738062,688.6538461538463,13.359503409968006,0.08333333333333333,0.0,7.5
139,111.78082191780823,536.7647058823529,2.538628897298834,0.0,0.0,2.5
140,60.64008983717013,989.4444444444445,2.8327886186626583,0.0,0.0,2.5
141,72.46774636288771,827.9545454545455,7.215685393812519,0.0,0.0,5.0
142,64.034151547492,937.0,9.0,0.0,0.0,5.0
143,51.06382978723404,1175.0,103.97458480664535,0.8333333333333334,0.6666666666666666,35.0
144,63.17636735887687,949.7222222222223,19.236988547978648,0.25,0.125,10.0
145,103.67170626349892,578.75,8.385254915624209,0.0,0.0,5.0
146,68.25938566552901,879.0,17.507141400011598,0.2222222222222222,0.0,11.25
147,74.70817120622569,803.125,21.581362522633587,0.4545454545454545,0.0,15.0
148,100.47446274072009,597.1666666666666,6.315765107165473,0.0,0.0,5.0
149,77.94508414526129,769.7727272727273,14.556104056005376,0.1,0.0,10.0
150,57.17310746426681,1049.4444444444443,31.661792997277786,0.125,0.0,37.5
151,85.68646543330088,700.2272727272727,3.4467615654779773,0.0,0.0,2.5
152,76.10262323436149,788.4090909090909,9.431133600566561,0.2,0.0,7.5
153,55.37929045284108,1083.4375,41.41892494681628,0.7142857142857143,0.14285714285714285,15.0
154,83.55650776647028,718.0769230769231,57.26250154193612,0.6666666666666666,0.5,30.0
155,51.863857374392225,1156.875,15.799030824705673,0.7142857142857143,0.0,7.5
156,42.97224709042077,1396.25,151.55960048772891,0.8,0.8,60.0
157,61.25921724333522,979.4444444444445,31.019209500319175,0.25,0.0,22.5
158,81.60952111079625,735.2083333333335,26.74062011040299,0.3636363636363637,0.0,17.5
159,72.74731330945164,824.7727272727273,40.76616446624893,0.7,0.2,25.0
160,78.43137254901961,765.0,125.5836374692181,1.0,1.0,70.0
161,78.581173260573,763.5416666666665,3.8808200021244086,0.0,0.0,2.5
162,41.1663807890223,1457.5,21.40872096444188,0.6,0.2,11.25
163,45.46684709066306,1319.642857142857,21.771072363040247,0.6666666666666666,0.16666666666666666,17.5
164,71.04413347685684,844.5454545454545,23.520256787264103,0.2,0.0,15.0
165,70.08229360233608,856.1363636363636,23.869047005665674,0.2,0.0,7.5
166,73.23162274618585,819.3181818181819,43.11837444612253,0.7,0.4,22.5
167,69.54689146469968,862.7272727272727,3.2777738867854445,0.0,0.0,2.5
168,69.36416184971098,865.0,11.346805717910216,0.0,0.0,8.75
169,48.44290657439446,1238.5714285714287,27.053424092008036,0.6666666666666666,0.16666666666666666,20.0
170,75.68988173455979,792.7083333333335,29.18080014705255,0.18181818181818185,0.0,25.0
171,80.3123257110987,747.0833333333335,13.87568817112226,0.0,0.0,8.75
172,77.44017208927131,774.7916666666665,10.481051023421056,0.09090909090909093,0.0,3.75
173,82.66360505166476,725.8333333333335,96.0486711111727,0.6363636363636364,0.6363636363636364,21.25
174,68.31767719897523,878.25,18.909323097350683,0.2222222222222222,0.0,15.0
175,72.62723521320495,826.1363636363636,37.42209538682322,0.5,0.1,30.0
176,133.86454183266932,448.21428571428567,181.1490159686068,1.0,1.0,50.0
177,75.51487414187643,794.5454545454545,10.543103186130184,0.3,0.0,7.5
178,59.68499585520862,1005.2777777777777,23.1673994022145,0.375,0.0,12.5
179,69.06474820143886,868.75,15.742061491431166,0.2222222222222222,0.0,12.5
180,84.99046581312994,705.9615384615386,122.70406261509241,0.75,0.5833333333333334,42.5
181,82.37986270022883,728.3333333333335,147.15118831399974,1.0,0.75,32.5
182,73.94957983193277,811.3636363636364,2.892709559399513,0.0,0.0,2.5
183,167.11301553294055,359.03846153846155,144.35212842992138,1.0,0.96,18.75
184,71.17437722419929,843.0,7.483314773547883,0.1111111111111111,0.0,5.0
185,73.00884955752213,821.8181818181819,12.751600126459579,0.0,0.0,5.0
186,69.66618287373004,861.25,7.925433742073679,0.0,0.0,5.0
187,61.64383561643835,973.3333333333335,5.773502691896257,0.0,0.0,2.5
188,170.7717569786535,351.34615384615387,138.40997971680764,0.8888888888888888,0.8888888888888888,10.0
189,52.84888521882741,1135.3125,51.393662972685654,0.42857142857142855,0.2857142857142857,13.75
190,133.29630658150518,450.125,177.55012496475467,1.0,1.0,172.5
191,50.19420376456528,1195.357142857143,30.86342528638329,0.8333333333333334,0.16666666666666666,17.5
192,45.31151667715544,1324.1666666666667,17.539637649874326,0.8,0.0,13.75
193,156.4945226917058,383.4,120.92328146391,1.0,1.0,15.0
194,54.623044096728314,1098.4375,33.679034186716216,0.5714285714285714,0.14285714285714285,20.0
195,136.88212927756658,438.33333333333326,180.35403894861733,1.0,1.0,7.5
196,119.90533789113856,500.39473684210526,227.5097787919969,1.0,1.0,5.0
197,74.47633824670287,805.625,40.531944706202616,0.2727272727272727,0.0,41.25
198,89.81555733761026,668.0357142857142,5.442768090760062,0.0,0.0,3.75
199,52.98013245033113,1132.5,24.044230077089185,0.7142857142857143,0.0,12.5
200,74.51312447078745,805.2272727272727,4.937627496000097,0.0,0.0,5.0
201,84.48415922014621,710.1923076923077,44.16382894385685,0.5,0.5,5.0
202,96.6702470461869,620.6666666666666,114.66787790057957,0.7857142857142857,0.7857142857142857,105.0
203,72.09175314036047,832.2727272727273,15.610840691885814,0.0,0.0,12.5
204,123.99896667527771,483.875,2.7922884879610845,0.0,0.0,2.5
205,70.94866971244289,845.6818181818181,15.742635691408115,0.1,0.0,7.5
206,68.82707198164611,871.75,40.04762789479547,0.6666666666666666,0.1111111111111111,28.75
207,98.1728933733297,611.1666666666666,8.508166012066813,0.0,0.0,5.0
208,84.2642834344079,712.0454545454545,116.90525583982617,0.7777777777777778,0.6666666666666666,97.5
209,77.5786071113723,773.4090909090909,9.843821739867145,0.0,0.0,5.0
210,116.69367909238251,514.1666666666666,197.0335560817553,1.0,1.0,140.0
211,162.5,369.23076923076917,154.95621160441715,1.0,1.0,153.75
212,78.02763478732052,768.9583333333335,12.309309372268705,0.0,0.0,8.75
213,59.50413223140496,1008.3333333333335,17.756063127218763,0.25,0.0,15.000000000000114
214,101.75240248728096,589.6666666666666,2.0138409955990952,0.0,0.0,2.5
215,66.70372429127292,899.5,24.23324163210527,0.3333333333333333,0.0,20.0
216,71.83673469387755,835.2272727272727,7.1869946822008615,0.0,0.0,5.0
217,65.81352833638026,911.6666666666665,176.27708617716343,1.0,1.0,190.0
218,92.69391696169941,647.2916666666666,111.0905145840794,0.7,0.6,86.25
219,72.05240174672487,832.7272727272727,11.4044720820858,0.0,0.0,7.5
220,70.09345794392523,856.0,70.24243731534378,0.4444444444444444,0.3333333333333333,32.5
221,63.86753400354819,939.4444444444445,23.76907940586823,0.5,0.125,10.0
222,83.73590982286635,716.5384615384614,10.765796155598776,0.16666666666666666,0.0,10.0
223,64.27423674343868,933.5,13.793114224133722,0.3333333333333333,0.0,5.0
224,105.72687224669605,567.5,62.000948759344176,0.125,0.125,15.0
225,79.05572330496842,758.9583333333335,4.012783392553796,0.0,0.0,1.25
226,78.32472124014144,766.0416666666665,13.823980271815913,0.3636363636363637,0.0,7.5
227,214.78599221789884,279.3478260869565,213.86863271759017,0.9473684210526316,0.8947368421052632,187.5
228,133.18534961154273,450.5,179.1239096268279,1.0,1.0,158.75
229,63.508864779042085,944.75,39.881856777236436,0.7777777777777778,0.2222222222222222,33.75
230,164.94845360824743,363.75,132.30618989531587,1.0,1.0,121.25
231,63.79208505611341,940.5555555555555,51.42116103773948,0.5,0.375,10.0
232,73.84615384615384,812.5,18.122060890226887,0.0,0.0,20.0
233,79.66804979253112,753.125,16.743313341948387,0.0,0.0,7.5
234,188.60510805500985,318.125,225.13351693257172,1.0,1.0,207.5
235,64.43914081145584,931.1111111111113,33.85243941462694,0.375,0.125,37.5
236,121.50279776179056,493.81578947368416,4.614652083355304,0.0,0.0,2.5
237,80.0,750.0,81.2788410350443,0.2727272727272727,0.2727272727272727,17.5
238,73.02904564315351,821.5909090909091,14.273016789188715,0.0,0.0,10.0
239,128.92828364222402,465.375,191.72453383696097,1.0,1.0,188.75
240,141.06331819396206,425.34090909090907,156.1436828375796,1.0,1.0,138.75
241,159.57446808510642,376.0,138.85964136494087,1.0,1.0,7.5
242,64.01896858328394,937.2222222222223,18.387965737150406,0.5,0.0,15.0
243,68.20119352088662,879.75,34.721211096388906,0.4444444444444444,0.1111111111111111,31.25
244,104.00866738894906,576.875,22.52602661367513,1.0,0.0,18.75
245,123.39331619537278,486.25,67.00046641628697,0.8421052631578947,0.631578947368421,36.249999999999964
246,51.036682615629985,1175.625,41.67864411182303,0.5714285714285714,0.14285714285714285,26.25
247,68.06579693703914,881.5,32.42684073418192,0.2222222222222222,0.0,16.25
248,68.99383983572895,869.6428571428571,23.27738676685761,0.4,0.0,22.5
249,80.67226890756302,743.75,90.47271688194182,0.5,0.25,12.5
250,85.02024291497976,705.7142857142858,203.96828484960545,1.0,1.0,210.0
251,121.38728323699421,494.28571428571433,264.03704517451666,1.0,1.0,2.5
252,101.10584518167455,593.4375,27.226982824947754,0.13333333333333333,0.0,16.25
253,58.91377723227984,1018.4375,17.807016699885484,0.5714285714285714,0.0,13.750000000000055
254,68.18181818181819,880.0,51.11262075065218,0.6666666666666666,0.3333333333333333,17.5
255,67.98866855524079,882.5,9.810708435174293,0.1111111111111111,0.0,8.75
256,103.65448504983391,578.8461538461537,9.073173932373424,0.09090909090909093,0.0,2.5
257,73.86681589255737,812.2727272727273,14.97932459389462,0.4,0.0,7.5
258,58.50487540628386,1025.5555555555557,16.277872582204022,0.25,0.0,17.5
259,106.37119113573408,564.0625,106.81421882759804,0.9333333333333332,0.6666666666666666,60.0
260,90.7862739800054,660.8928571428571,20.38922909933836,0.2307692307692308,0.15384615384615385,6.25
261,71.38607971445569,840.5,13.638181696985855,0.0,0.0,10.0
262,67.51054852320675,888.75,8.081614937622307,0.0,0.0,2.5
263,56.63345568956477,1059.4444444444443,66.1099439672885,0.625,0.375,45.0
264,69.56521739130434,862.5,11.346805717910216,0.0,0.0,8.75
265,122.9193341869398,488.125,216.82155921786625,1.0,1.0,198.75
266,171.64750957854406,349.55357142857144,134.46164743190542,0.9629629629629628,0.9629629629629628,11.25
267,84.59869848156181,709.2307692307692,123.49238771068121,0.5,0.5,17.5
268,68.2699767261443,878.8636363636364,3.2619772941834824,0.0,0.0,2.5
269,83.02104352839434,722.7083333333335,16.722562519608715,0.0,0.0,11.25
270,84.75957620211899,707.8846153846154,5.704768066996663,0.0,0.0,2.5
271,74.11566535654126,809.5454545454545,13.43410609648332,0.2,0.0,7.5
272,70.08229360233608,856.1363636363636,17.101423264920097,0.4,0.0,10.0
273,82.16364258815473,730.25,37.42408983529192,0.25,0.125,36.25
274,96.12817089452604,624.1666666666666,2.9814239699997205,0.0,0.0,2.5
275,134.83146067415728,445.0,197.78173231207086,1.0,1.0,183.75
276,131.7991631799163,455.2380952380952,174.2482232639908,1.0,1.0,145.0
277,69.27315665179744,866.1363636363636,11.299820813323686,0.1,0.0,7.5
278,90.73724007561435,661.25,14.569721538666608,0.0,0.0,13.75
279,56.88888888888889,1054.6875,26.381737883429874,0.5714285714285714,0.2857142857142857,22.5
280,62.60869565217392,958.3333333333335,10.341394704992382,0.0,0.0,5.0
281,137.5921375921376,436.07142857142856,196.28176332060215,0.9090909090909092,0.8181818181818182,21.25
282,98.48484848484848,609.2307692307693,69.26388097053609,0.0,0.0,5.0
283,104.62074978204012,573.5,57.382488618044434,0.5555555555555556,0.3333333333333333,11.25
284,107.20667063728409,559.6666666666666,118.60602383053268,0.35714285714285715,0.2857142857142857,20.0
285,210.98901098901095,284.375,47.28157014101795,1.0,1.0,1.25
286,72.58729722298598,826.5909090909091,22.03490844280149,0.1,0.0,7.5
287,142.24137931034485,421.8181818181818,182.4473489091221,1.0,1.0,171.25
288,68.80733944954129,872.0,28.27985148475855,0.4444444444444444,0.1111111111111111,13.75
289,82.84652150823153,724.2307692307692,166.76326096326068,0.6666666666666666,0.4166666666666667,160.0
290,51.036682615629985,1175.625,36.00672680208519,0.7142857142857143,0.2857142857142857,27.5
291,78.06993765248035,768.5416666666665,78.44490060262397,0.6363636363636364,0.3636363636363637,55.0
292,50.46560528687294,1188.9285714285713,111.1695707888978,1.0,0.5,27.5
293,81.56329651656755,735.625,13.6978176485648,0.0,0.0,11.25
294,54.08450704225352,1109.375,26.003305078393396,0.5714285714285714,0.14285714285714285,20.0
295,79.55801104972377,754.1666666666665,6.236095644623236,0.0,0.0,3.75
296,127.8976818545164,469.125,2.6545950726994127,0.0,0.0,2.5
297,61.67904054825814,972.7777777777777,14.64602925162674,0.25,0.0,12.5
298,219.17808219178082,273.75,25.27968552019585,1.0,1.0,1.25
299,71.54471544715446,838.6363636363636,12.763746438271792,0.1,0.0,10.0
300,119.91434689507496,500.3571428571428,261.6753324099097,1.0,1.0,2.5
301,56.38766519823788,1064.0625,25.918667862179927,0.2857142857142857,0.14285714285714285,17.5
302,67.73920406435225,885.75,6.896557112066861,0.0,0.0,6.25
303,62.645011600928065,957.7777777777777,21.90397111524036,0.75,0.0,20.0
304,71.28007128007128,841.75,27.29583301531573,0.3333333333333333,0.0,30.0
305,60.0,1000.0,86.31338250816034,0.8571428571428571,0.5714285714285714,55.0
306,64.72879832184597,926.9444444444445,39.734846478769214,0.625,0.0,37.5
307,73.08970099667775,820.9090909090909,17.36220841344025,0.5,0.0,12.5
308,215.48821548821547,278.4375,157.75741612916332,0.8181818181818182,0.8181818181818182,140.0
309,88.48553601815088,678.0769230769231,20.87402338005316,0.5833333333333334,0.08333333333333333,15.0
310,86.57047724750278,693.0769230769231,82.25285736300407,0.75,0.3333333333333333,47.5
311,140.9879839786382,425.5681818181818,154.5850968541971,1.0,1.0,147.5
312,59.37328202308961,1010.5555555555555,29.5046554183916,0.25,0.0,10.0
313,69.62576153176676,861.75,25.225235380467712,0.6666666666666666,0.0,15.0
314,70.23144453312051,854.3181818181819,44.86204749880599,0.7,0.2,32.5
315,73.72242390393744,813.8636363636364,51.757340677913376,0.7,0.6,20.0
316,149.76599063962558,400.625,137.7199944634039,1.0,1.0,127.5
317,60.96528365791702,984.1666666666665,15.320646925708552,0.125,0.0,10.0
318,76.53467977677384,783.9583333333335,38.344088165220754,0.2727272727272727,0.09090909090909093,30.0
319,54.1913632514818,1107.1875,10.340870067358937,0.0,0.0,5.0
320,118.8445667125172,504.86111111111114,209.22056447387155,1.0,1.0,202.5
321,147.1264367816092,407.8125,160.87539254678862,1.0,1.0,37.5
322,56.13305613305614,1068.888888888889,20.61927062210626,0.375,0.0,17.5
323,63.028888240443536,951.9444444444445,61.22338171920762,0.5,0.375,42.5
324,61.32879045996592,978.3333333333335,16.749792701868177,0.375,0.0,12.5
325,53.141433711597,1129.0625,68.88551984089257,0.7142857142857143,0.14285714285714285,38.75
326,63.660477453580896,942.5,15.41103500742244,0.25,0.0,12.5
327,78.8177339901478,761.25,10.631125685144227,0.0,0.0,3.75
328,85.22261677137394,704.0384615384614,6.087381458209389,0.0,0.0,5.0
329,217.7858439201452,275.5,252.12794371112457,1.0,1.0,10.0
330,170.2127659574468,352.5,97.17895862788406,1.0,0.8636363636363636,68.75
331,67.02038536721587,895.25,12.219349409849935,0.1111111111111111,0.0,6.25
332,131.79571663920922,455.25,184.59398012936398,1.0,1.0,18.75
333,103.2702237521515,581.0,187.22045828381042,1.0,1.0,57.5
334,84.80565371024737,707.5,7.5955452531275,0.0,0.0,5.0
335,66.85236768802228,897.5,6.324555320336759,0.0,0.0,6.25
336,45.35433070866142,1322.9166666666667,30.666779891095327,0.2,0.2,20.0
337,92.00102223358036,652.1666666666666,96.45753239408293,0.7857142857142857,0.5,30.0
338,65.64551422319475,914.0,7.516648189186454,0.1111111111111111,0.0,3.75
339,146.45794640488194,409.6739130434783,149.8936295812331,1.0,1.0,17.5
340,129.9052774018945,461.875,168.15752473499364,1.0,1.0,67.5
341,85.12960436562074,704.8076923076923,11.070644588172504,0.0,0.0,7.5
342,50.61765592045797,1185.357142857143,21.398788827064628,0.5,0.0,15.0
343,53.79658167553937,1115.3125,14.055553840030635,0.2857142857142857,0.0,10.0
344,134.04255319148936,447.61904761904765,68.26278090025214,0.75,0.5,25.0
345,65.1780325890163,920.5555555555555,108.9710574328096,0.875,0.875,77.5
346,51.502145922746784,1165.0,64.43435197381686,1.0,0.8333333333333334,62.5
347,74.51312447078745,805.2272727272727,2.9105110170149318,0.0,0.0,2.5
348,76.4737121614445,784.5833333333335,20.228726823230595,0.6363636363636364,0.0,17.5
349,69.26406926406926,866.25,7.520804478245663,0.0,0.0,6.25
350,96.80021511158913,619.8333333333334,4.6963342678684565,0.0,0.0,2.5
351,65.63354603463993,914.1666666666665,16.115899671511432,0.125,0.0,17.5
352,125.1303441084463,479.5,225.15911040861752,1.0,1.0,212.5
353,73.39449541284405,817.5,9.770084209183944,0.1,0.0,5.0
354,95.06205439662004,631.1666666666666,123.99887992325665,0.8571428571428571,0.7857142857142857,65.0
355,69.28406466512702,866.0,38.4252521136817,0.5555555555555556,0.3333333333333333,23.75
356,97.40259740259741,616.0,44.06245567373657,0.21428571428571427,0.21428571428571427,2.5
357,70.7395498392283,848.1818181818181,11.535070491317745,0.0,0.0,10.0
358,184.07828616768046,325.94827586206895,175.7979514624862,0.9642857142857144,0.9642857142857144,127.5
359,79.31699256403195,756.4583333333335,32.85793811580729,1.0,0.7272727272727273,38.75
360,60.23424428332404,996.1111111111113,26.773512800047754,0.375,0.125,22.5
361,120.411935569052,498.2894736842105,182.43249045443412,1.0,1.0,52.5
362,96.95663883652031,618.8333333333334,3.3993463423951904,0.0,0.0,2.5
363,144.5238991343621,415.15625,177.01180387459334,1.0,1.0,51.25
364,53.79658167553937,1115.3125,15.07468386899042,0.14285714285714285,0.0,11.25
365,69.18420294032863,867.25,27.57829762693847,0.4444444444444444,0.2222222222222222,23.75
366,81.86827604303333,732.8846153846154,6.853280646617486,0.0,0.0,5.0
367,229.78723404255317,261.1111111111111,148.55372723881152,1.0,1.0,77.5
368,121.8925421010425,492.23684210526324,1.3800116423291469,0.0,0.0,0.0
369,52.33644859813084,1146.4285714285713,147.1870599347813,1.0,0.8333333333333334,60.0
370,85.87943848059454,698.6538461538463,7.044868878467001,0.0,0.0,5.0
371,71.19741100323624,842.7272727272727,18.963318222730138,0.1,0.1,7.5
372,89.60000000000002,669.6428571428571,1.8557687223952255,0.0,0.0,2.5
373,61.48590947907771,975.8333333333335,16.583123951777,0.25,0.0,5.0
374,78.4527376736584,764.7916666666665,5.444639310571659,0.0,0.0,5.0
375,82.78240873814316,724.7916666666665,8.806858911603438,0.0,0.0,6.25
376,208.69565217391303,287.5,170.28468809614094,1.0,1.0,108.75
377,61.18980169971672,980.5555555555555,35.60543376480965,0.375,0.0,17.5
378,75.1922529193962,797.9545454545455,31.457369815394287,0.8,0.2,27.5
379,68.08510638297872,881.25,26.25,0.2222222222222222,0.0,23.75
380,75.56080283353009,794.0625,197.96202879277126,0.8333333333333334,0.5,172.5
381,68.35659356308743,877.75,138.45780043031158,1.0,0.8888888888888888,90.0
382,104.68920392584516,573.125,16.594897559189693,0.13333333333333333,0.0,15.0
383,152.8273051451859,392.6,149.3410191474533,1.0,1.0,140.0
384,52.96343001261034,1132.857142857143,71.84343805690769,0.8333333333333334,0.3333333333333333,50.0
385,53.84183959618621,1114.375,14.017288432503626,0.0,0.0,8.75
386,76.82048546279006,781.0416666666665,8.865801179563839,0.0,0.0,5.0
387,64.6900269541779,927.5,15.09230856356236,0.125,0.0,10.0
388,54.76326297775242,1095.625,25.792137852454186,0.7142857142857143,0.0,16.25
389,68.00618238021639,882.2727272727273,20.097900881303772,0.1,0.0,15.0
390,58.84155684952498,1019.6875,17.872705272286005,0.0,0.0,15.0
391,159.10898965791566,377.1,140.68702854207987,1.0,1.0,55.0
392,67.58659532526049,887.75,58.37861337853101,0.7777777777777778,0.1111111111111111,42.5
393,73.61963190184049,815.0,22.079402165819612,0.3,0.0,15.0
394,82.3327615780446,728.75,22.580873174732044,0.09090909090909093,0.0,23.75
395,75.23510971786834,797.5,11.129404133359358,0.0,0.0,5.0
396,84.09703504043127,713.4615384615386,10.942966723428304,0.0,0.0,10.0
397,87.22393066815769,687.8846153846154,8.369251979611134,0.0,0.0,7.5
398,117.24915445321308,511.73076923076917,252.9639390068668,1.0,1.0,5.0
399,66.2251655629139,906.0,14.882876066137214,0.2222222222222222,0.0,15.0
400,68.3583635422061,877.7272727272727,32.67356704541263,0.6,0.1,30.0
401,64.6900269541779,927.5,49.01530373260988,0.6666666666666666,0.3333333333333333,42.5
402,58.417849898580116,1027.0833333333333,100.6377234882074,1.0,0.5,45.0
403,75.55089192025184,794.1666666666665,85.81917358933,1.0,1.0,85.0
404,56.38214565387628,1064.1666666666667,22.173557826083478,0.25,0.0,15.0
405,128.73563218390805,466.07142857142856,192.65929004544867,1.0,1.0,107.5
406,82.66360505166476,725.8333333333335,12.761160692594625,0.09090909090909093,0.0,6.25
407,128.65183596890913,466.375,110.00419026109869,0.7894736842105263,0.631578947368421,80.0
408,76.45341120254845,784.7916666666665,10.629084182353415,0.0,0.0,6.25
409,69.9504517633343,857.75,8.620469824783333,0.0,0.0,6.25
410,60.26785714285714,995.5555555555555,17.351664096379327,0.5,0.0,12.5
411,76.410998552822,785.2272727272727,44.955211871152,0.7,0.4,17.5
412,97.21847150958685,617.1666666666666,55.08982563857767,0.07142857142857142,0.07142857142857142,5.0
413,82.78240873814316,724.7916666666665,8.567035497896704,0.0,0.0,5.0
414,82.36536430834214,728.4615384615386,10.309557810523241,0.0,0.0,5.0
415,63.914780292942744,938.75,49.990624120928906,0.4444444444444444,0.4444444444444444,17.5
416,97.53454348415063,615.1666666666666,130.70790165692188,0.8571428571428571,0.7142857142857143,102.5
417,134.0782122905028,447.5,124.68710839537502,1.0,1.0,87.5
418,62.81078251766553,955.25,8.975661535508118,0.0,0.0,5.0
419,89.0066225165563,674.1071428571429,87.61526664331731,0.9230769230769232,0.6923076923076923,65.0
420,64.61262339216272,928.6111111111113,13.442837369514288,0.25,0.0,12.5
421,68.27880512091039,878.75,6.846531968814577,0.0,0.0,7.5
422,49.66006503103754,1208.2142857142858,23.28834340985872,0.8333333333333334,0.0,17.5
423,52.846807172066676,1135.357142857143,33.68521749300456,0.6666666666666666,0.3333333333333333,15.0
424,147.32142857142858,407.27272727272725,143.95175385529882,1.0,1.0,160.0
425,62.30170175944621,963.0555555555555,4.044505494044733,0.0,0.0,2.5
426,94.68700683850605,633.6666666666666,7.79244648504064,0.0,0.0,2.5
427,91.72809172809171,654.1071428571429,7.0462213060531615,0.0,0.0,5.0
428,70.94866971244289,845.6818181818181,30.209324815115018,0.4,0.1,22.5
429,65.83358732093873,911.3888888888887,41.199229886126226,0.5714285714285714,0.0,10.0
430,63.04728546409808,951.6666666666665,22.23610677354389,0.5,0.0,15.0
431,72.09175314036047,832.2727272727273,39.963826618787756,0.4,0.1,20.0
432,64.22263848006422,934.25,25.837230888777537,0.2222222222222222,0.0,21.25
433,92.89232934553131,645.9090909090909,83.92551301920761,0.6666666666666666,0.5555555555555556,82.5
434,53.66126327557295,1118.125,25.761829806906185,0.42857142857142855,0.14285714285714285,10.0
435,74.19898819561551,808.6363636363636,17.430499535285467,0.0,0.0,15.0
436,74.21984818667417,808.4090909090909,16.99841995574105,0.1,0.0,7.5
437,103.1426269137792,581.71875,1.7044862679118304,0.0,0.0,2.5
438,69.68641114982579,861.0,58.69625200981746,0.6666666666666666,0.4444444444444444,37.5
439,90.37116729424422,663.9285714285714,75.8211846439788,0.6923076923076923,0.6153846153846154,51.25
440,65.45454545454545,916.6666666666665,50.82650227325635,0.5,0.25,57.5
441,64.72879832184597,926.9444444444445,51.677119611662036,0.5,0.375,62.5
442,94.4085417252037,635.5357142857142,38.4426587296467,0.4615384615384616,0.07692307692307693,26.25
443,87.23747980613892,687.7777777777777,134.04209768060664,1.0,0.8333333333333334,80.0
444,46.065259117082526,1302.5,11.9895788082818,0.2,0.0,6.25
445,188.5125184094256,318.28125,152.101730836429,1.0,0.9,165.0
446,90.27404621171414,664.6428571428571,16.00382607314863,0.07692307692307693,0.0,13.75
447,69.04487917146145,869.0,8.958236433584457,0.0,0.0,6.25
448,81.54020385050963,735.8333333333335,21.319331342443387,0.2727272727272727,0.0,21.25
449,60.77658975801914,987.2222222222223,17.616455550786576,0.375,0.0,12.5
450,79.20792079207921,757.5,156.14678409054147,0.6,0.5,57.5
451,98.46153846153848,609.375,2.072890493972125,0.0,0.0,2.5
452,68.02721088435375,882.0,39.47784188630376,0.7777777777777778,0.1111111111111111,27.5
453,85.92674194436796,698.2692307692308,9.97037030524286,0.0,0.0,7.5
454,58.489033306255074,1025.8333333333333,16.832508230603462,0.5,0.0,12.500000000000114
455,118.71393239901072,505.41666666666674,205.13418711229542,1.0,1.0,181.25
456,84.80565371024737,707.5,9.354143466934854,0.08333333333333333,0.0,5.0
457,53.646269907795464,1118.4375,14.466421248878383,0.42857142857142855,0.0,12.5
458,53.31640748968582,1125.357142857143,156.10452411438817,1.0,0.8333333333333334,40.0
459,82.47422680412372,727.5,23.369934663020484,0.16666666666666666,0.0,15.0
460,103.42041475895502,580.15625,149.55002494462346,1.0,0.8666666666666667,152.5
461,73.57859531772573,815.4545454545455,8.035304331665312,0.0,0.0,7.5
462,83.37787279529662,719.6153846153846,22.400338120863136,0.16666666666666666,0.0,17.5
463,111.11111111111113,540.0,31.646020101037887,0.125,0.125,5.0
464,80.37957019257604,746.4583333333335,48.352636231704636,0.3636363636363637,0.2727272727272727,33.75
465,76.59574468085106,783.3333333333335,4.714045207910317,0.0,0.0,1.25
466,64.44683136412459,931.0,148.0042229127264,1.0,1.0,122.5
467,70.82257469568425,847.1875,40.95419506900362,0.16666666666666666,0.0,11.25
468,79.07742998352553,758.75,27.18570396366443,0.18181818181818185,0.0,18.75
469,79.51408061844285,754.5833333333335,13.762620470761455,0.0,0.0,13.75
470,92.71523178807949,647.1428571428571,3.5174492149271805,0.0,0.0,1.25
471,75.66204287515762,793.0,110.10676636792128,0.8888888888888888,0.6666666666666666,68.75
472,118.86537595677623,504.77272727272725,2.7082671108665894,0.0,0.0,2.499999999999943
473,97.82608695652172,613.3333333333334,22.705848487901864,0.35714285714285715,0.0,17.5
474,93.82329945269743,639.5,10.692676621563626,0.07142857142857142,0.0,10.0
475,93.30741460705359,643.0357142857142,29.492410819028805,0.4615384615384616,0.2307692307692308,8.75
476,114.64968152866241,523.3333333333334,109.5128100066634,0.9411764705882352,0.8823529411764706,101.25
477,79.40446650124069,755.625,7.781187248742957,0.0,0.0,3.75
478,48.23428079242033,1243.9285714285713,107.5195758160972,0.8333333333333334,0.3333333333333333,37.5
479,61.50341685649203,975.5555555555555,29.33943539224643,0.625,0.125,7.5
480,52.80528052805282,1136.25,98.32185667490215,1.0,1.0,55.0
481,68.47360912981455,876.25,10.015612812005065,0.0,0.0,6.25
482,71.02502017756255,844.7727272727273,18.19885565378873,0.2,0.0,7.5
483,100.19482326746453,598.8333333333334,10.796089827134432,0.0,0.0,7.5
484,76.61612130885874,783.125,3.0830517889476545,0.0,0.0,2.5
485,97.48172217709178,615.5,7.756717518813398,0.0,0.0,7.5
486,81.1039143903126,739.7916666666665,11.878654408457027,0.0,0.0,10.0
487,57.65765765765765,1040.625,28.33256739160784,0.7142857142857143,0.2857142857142857,16.25
488,67.54855052068675,888.25,15.57441812717252,0.4444444444444444,0.0,12.5
489,79.67313585291113,753.0769230769231,53.79943027788354,0.08333333333333333,0.08333333333333333,10.0
490,69.97084548104957,857.5,36.05551275463989,0.5555555555555556,0.0,35.0
491,89.60000000000002,669.6428571428571,5.075953715554249,0.0,0.0,2.5
492,96.98275862068968,618.6666666666666,14.884742374510738,0.5,0.0,12.5
493,66.18863761720904,906.5,46.84015371452148,0.7777777777777778,0.3333333333333333,32.5
494,85.8321870701513,699.0384615384614,7.75455582832921,0.0,0.0,7.5
495,58.2171012734991,1030.625,10.212584148980143,0.2857142857142857,0.0,8.75
496,63.43612334801762,945.8333333333335,29.2261298612503,0.5,0.125,27.5
497,52.088985349972866,1151.875,17.444107171191078,0.2857142857142857,0.0,18.75
498,128.93323100537222,465.3571428571428,207.0718269021613,1.0,0.95,27.5
499,64.46414182111201,930.75,13.876689086377914,0.1111111111111111,0.0,10.0
500,65.21739130434783,920.0,62.77937559421885,1.0,0.4444444444444444,58.75
501,86.3070539419087,695.1923076923077,9.925759923510725,0.0,0.0,10.0
502,73.24516785350967,819.1666666666665,110.35296904831236,1.0,0.8571428571428571,60.0
503,59.2755214050494,1012.2222222222223,34.94925775011468,0.75,0.25,39.99999999999989
504,109.70691045980101,546.9117647058823,83.56720354690898,0.625,0.5625,45.000000000000064
505,66.6851903306474,899.75,18.352452152232953,0.2222222222222222,0.0,13.75
506,59.916782246879336,1001.3888888888887,24.15548911367741,0.75,0.0,20.0
507,64.4814615797958,930.5,9.987492177719087,0.1111111111111111,0.0,3.75
508,70.0525394045534,856.5,9.433981132056603,0.0,0.0,5.0
509,58.74354093010606,1021.3888888888887,16.75439872222246,0.5,0.0,15.0
510,49.542907696844594,1211.0714285714287,33.02750863341969,0.8333333333333334,0.3333333333333333,12.5
511,51.48636224333436,1165.357142857143,51.015203816197406,1.0,0.8333333333333334,42.5
512,68.49315068493149,876.0,12.806248474865697,0.1111111111111111,0.0,12.5
513,74.91486946651533,800.9090909090909,25.87717332270961,0.2,0.0,25.0
514,52.444687243922424,1144.0625,28.991849608984932,0.5714285714285714,0.14285714285714285,22.5
515,42.57835600236546,1409.166666666667,39.281745831308925,0.8,0.4,40.0
516,78.57142857142857,763.6363636363636,27.538477964387237,0.5,0.2,20.0
517,76.10262323436149,788.4090909090909,7.2513891516108275,0.0,0.0,5.0
518,168.92596454640253,355.18518518518516,120.9739142487727,1.0,1.0,47.5
519,78.51690294438386,764.1666666666665,4.823265376162594,0.0,0.0,2.5
520,79.64601769911503,753.3333333333335,7.660323462854265,0.0,0.0,5.0
521,84.30154012429071,711.7307692307692,19.522782928016127,0.4166666666666667,0.0,15.0
522,54.90420360308836,1092.8125,30.883791764451466,0.42857142857142855,0.2857142857142857,25.0
523,67.11409395973155,894.0,154.463587942272,0.8888888888888888,0.7777777777777778,112.5
524,68.94570525711002,870.25,14.977065800750161,0.2222222222222222,0.0,8.75
525,92.15578716401535,651.0714285714286,3.7457458863219704,0.0,0.0,2.5
526,57.233704292527825,1048.3333333333333,21.473497877875207,0.875,0.0,12.5
527,80.60453400503779,744.375,22.824625772762772,0.3636363636363637,0.0,16.25
528,75.0,800.0,100.66822194263149,0.6,0.3,27.5
529,109.82503364737549,546.3235294117649,5.948161298869612,0.0,0.0,5.0
530,77.98537774167345,769.375,33.74421246673272,0.09090909090909093,0.0,30.0
531,62.69592476489028,957.0,73.86474125047754,0.5555555555555556,0.3333333333333333,18.75
532,143.93741851368972,416.8478260869565,214.57391727219544,0.9545454545454546,0.9545454545454546,22.5
533,78.26860361695819,766.5909090909091,13.86922391126578,0.1,0.0,12.5
534,130.54120206690234,459.625,209.31626041710186,1.0,1.0,168.75
535,135.10747185261005,444.09090909090907,142.8316424997401,1.0,1.0,141.25
536,191.78082191780825,312.85714285714283,44.71993346349692,1.0,1.0,36.25
537,75.55809959931311,794.0909090909091,6.055869361124648,0.0,0.0,2.5
538,166.97886004816695,359.32692307692315,102.25946846396448,1.0,1.0,91.25
539,79.51408061844285,754.5833333333335,41.38026569379284,0.4545454545454545,0.0,23.75
540,90.24979854955679,664.8214285714286,34.685632648762486,0.2307692307692308,0.2307692307692308,6.25
541,42.313117066290545,1418.0,140.6893741545537,0.75,0.75,67.5
542,129.03225806451613,465.0,251.0229073212244,1.0,1.0,0.0
543,64.1025641025641,936.0,7.842193570679061,0.0,0.0,5.0
544,96.20523784072691,623.6666666666666,4.988876515698589,0.0,0.0,2.5
545,57.097541633624104,1050.8333333333333,14.766704288891125,0.0,0.0,15.0
546,71.33207241286141,841.1363636363636,13.414867784885187,0.0,0.0,5.0
547,65.75342465753424,912.5,11.242281302693367,0.125,0.0,7.5
548,80.40201005025126,746.25,35.816371954736006,0.2727272727272727,0.09090909090909093,28.75
549,114.22172452407615,525.2941176470588,1.8947204009889889,0.0,0.0,2.5
550,151.30023640661938,396.5625,169.6332018712237,1.0,1.0,151.25
551,83.57889097240826,717.8846153846154,16.078119204675755,0.25,0.0,17.5
552,76.45525629887054,784.7727272727273,35.79383113201824,0.3,0.0,35.0
553,76.45525629887054,784.7727272727273,63.24065278987288,1.0,0.6,47.5
554,47.68663071246097,1258.2142857142858,147.1255190894732,0.3333333333333333,0.16666666666666666,10.0
555,69.56521739130434,862.5,51.98338895524921,0.7,0.2,25.0
556,68.04123711340206,881.8181818181819,72.0959817085002,0.6,0.3,52.5
557,67.49156355455568,889.0,41.88078318274385,0.2222222222222222,0.0,41.25
558,50.955414012738856,1177.5,36.63587722438211,0.8571428571428571,0.42857142857142855,23.75
559,79.16437603078614,757.9166666666665,32.92721350021725,0.5454545454545454,0.0,22.5
560,69.38239159001314,864.7727272727273,39.31883867028839,0.5,0.0,32.5
561,69.78772899098576,859.75,22.8432156230247,0.6666666666666666,0.0,17.5
562,71.83478000598623,835.25,10.335013304297194,0.0,0.0,5.0
563,105.00410172272356,571.40625,1.9702375332685145,0.0,0.0,0.0
564,60.62519734764762,989.6875,59.285294076608906,0.8333333333333334,0.8333333333333334,30.0
565,72.92817679558011,822.7272727272727,8.009550084866406,0.0,0.0,5.0
566,105.42635658914728,569.1176470588234,6.413518378634271,0.0,0.0,5.0
567,70.19409731454401,854.7727272727273,11.650914198160269,0.0,0.0,10.0
568,56.42080517190714,1063.4375,19.602993234452747,0.2857142857142857,0.0,16.25
569,80.78541374474051,742.7083333333335,23.50661106771643,0.18181818181818185,0.0,7.5
570,69.56521739130434,862.5,45.776135108313206,0.7,0.4,30.0
571,77.5444264943457,773.75,12.72710362441772,0.09090909090909093,0.0,7.5
572,64.67065868263471,927.7777777777777,15.874702291366164,0.5,0.0,7.5
573,67.75832862789385,885.5,26.095976701399774,0.1111111111111111,0.0,23.75
574,93.72384937238493,640.1785714285714,55.35167023640011,0.3076923076923077,0.2307692307692308,7.5
575,81.67895632444696,734.5833333333335,7.058780977540589,0.0,0.0,5.0
576,60.72533033455159,988.0555555555555,21.30394387646002,0.375,0.0,10.0
577,74.97869923317239,800.2272727272727,16.322549428159522,0.1,0.0,15.0
578,67.95016987542469,883.0,43.87197283004264,0.7777777777777778,0.4444444444444444,40.0
579,90.9090909090909,660.0,10.856202966836188,0.0,0.0,6.25
580,154.09309791332262,389.375,169.81032617305698,1.0,1.0,141.25
581,48.66743916570103,1232.857142857143,40.209908414393055,0.8333333333333334,0.5,37.5
582,125.6890848952591,477.3684210526316,234.81722131015584,1.0,1.0,10.0
583,124.67532467532469,481.25,240.6248376622829,1.0,1.0,232.5
584,68.5910260074307,874.75,31.65142176901379,0.4444444444444444,0.2222222222222222,23.75
585,75.61039642950905,793.5416666666665,22.533732429897675,0.2727272727272727,0.09090909090909093,10.0
586,54.63858850313034,1098.125,113.24579186442206,1.0,0.8571428571428571,100.0
587,51.29770992366412,1169.642857142857,23.23899783571063,0.6666666666666666,0.16666666666666666,15.0
588,72.6672171758877,825.6818181818181,30.970860738378477,0.5,0.2,25.0
589,66.64815329075257,900.25,19.82580389290684,0.0,0.0,13.75
590,67.6246830092984,887.25,8.54766049863938,0.0,0.0,6.25
591,104.80349344978164,572.5,56.812662069547244,0.07692307692307693,0.07692307692307693,6.25
592,97.2972972972973,616.6666666666666,139.7964790527843,1.0,0.7,90.00000000000004
593,62.55430060816681,959.1666666666665,54.185894023362856,1.0,0.75,27.5
594,63.38028169014085,946.6666666666665,17.55942292142123,0.25,0.0,17.5
595,87.15083798882681,688.4615384615386,22.17800498975153,0.16666666666666666,0.0,15.0
596,66.1521499448732,907.0,48.615841039726966,0.5555555555555556,0.1111111111111111,25.0
597,70.45636509207365,851.5909090909091,7.329325225725953,0.0,0.0,2.5
598,48.7097709481009,1231.7857142857142,14.124085666632281,0.3333333333333333,0.0,7.5
599,70.15678979537603,855.2272727272727,26.702369350408212,0.8,0.0,15.0
600,56.338028169014095,1065.0,231.4222331583549,0.75,0.5,143.75
601,92.7920463960232,646.6071428571429,7.476579076949401,0.0,0.0,6.25
602,92.7920463960232,646.6071428571429,7.476579076949401,0.0,0.0,6.25
603,38.70967741935485,1550.0,28.795254238618327,1.0,0.0,27.5
604,92.51101321585905,648.5714285714286,6.860490254392338,0.0,0.0,6.25
605,64.42953020134229,931.25,73.12873922063747,0.2222222222222222,0.2222222222222222,12.5
606,60.759493670886066,987.5,15.138251770487454,0.125,0.0,15.0
607,65.65064478311841,913.9285714285713,90.5623023793283,0.2,0.2,20.0
608,58.66177818515124,1022.8125,63.98776128096685,0.5714285714285714,0.42857142857142855,21.25
609,51.80388529139686,1158.2142857142858,38.3059647936912,0.6666666666666666,0.3333333333333333,15.0
610,69.04487917146145,869.0,7.088723439378913,0.1111111111111111,0.0,2.5
611,49.39723610702735,1214.642857142857,30.92122974559052,0.6666666666666666,0.16666666666666666,7.5
612,123.83900928792568,484.5,214.82783804712085,1.0,1.0,210.0
613,56.18964003511852,1067.8125,4.911323014219286,0.0,0.0,3.75
614,51.660516605166066,1161.4285714285713,21.665358411575863,0.5,0.0,22.5
615,139.60867265996828,429.77272727272725,163.8716742449247,1.0,1.0,2.5
616,61.162079510703364,981.0,17.0,0.1111111111111111,0.0,8.75
617,66.4819944598338,902.5,10.680004681646912,0.14285714285714285,0.0,6.25
618,209.643605870021,286.2,220.0546750241857,1.0,0.9545454545454546,225.0
619,48.83720930232558,1228.5714285714287,41.68026988827189,0.6666666666666666,0.5,40.0
620,64.58557588805165,929.0,120.19879367115131,0.8888888888888888,0.7777777777777778,46.250000000000064
621,51.09100585417775,1174.375,18.86423534098321,0.14285714285714285,0.0,8.75
622,74.19898819561551,808.6363636363636,12.448239943299232,0.1,0.0,5.0
623,82.80621046578494,724.5833333333335,23.135320519836235,0.3636363636363637,0.0,16.25
624,64.23982869379014,934.0,19.53202498462461,0.2222222222222222,0.0,17.5
625,126.84989429175477,473.0,194.4055040373086,1.0,1.0,185.0
626,87.4772194740953,685.8928571428571,3.077444274931087,0.0,0.0,2.5
627,98.20971867007671,610.9375,110.49206348760984,0.7333333333333333,0.6666666666666666,91.25
628,68.33712984054671,878.0,62.60790684889568,0.5555555555555556,0.3333333333333333,33.75
629,78.3886771910724,765.4166666666665,60.38792419754871,0.6363636363636364,0.3636363636363637,53.75
630,122.24108658743636,490.83333333333326,209.14242887457237,1.0,0.9230769230769232,30.0
631,125.96685082872929,476.31578947368416,187.95535657831618,1.0,1.0,2.5
632,70.27818448023426,853.75,13.612953390061982,0.4444444444444444,0.0,6.25
633,80.42446244065904,746.0416666666665,15.826478779423914,0.2727272727272727,0.0,7.5
634,60.529634300126105,991.25,55.565276927232176,1.0,0.8571428571428571,38.75
635,76.87827606290041,780.4545454545455,12.004647860222054,0.0,0.0,10.0
636,102.15482841181164,587.34375,2.8598445652692384,0.0,0.0,2.5
637,80.13355592654425,748.75,9.492321458245431,0.0,0.0,3.75
638,85.71428571428571,700.0,40.03346814140103,0.6923076923076923,0.2307692307692308,30.0
639,80.20050125313283,748.125,34.94228872965631,0.18181818181818185,0.09090909090909093,20.0
640,119.21763427506987,503.28125,74.06035730022845,0.6,0.5333333333333333,5.0
641,60.572069545709475,990.5555555555555,20.13074547999272,0.5,0.125,7.5
642,45.58404558404558,1316.25,12.479149276559946,0.2,0.0,12.5
643,68.02721088435375,882.0,20.850659461993047,0.3333333333333333,0.0,18.75
644,62.9737609329446,952.7777777777777,33.25917677132392,0.625,0.125,32.5
645,66.57420249653259,901.25,8.75,0.0,0.0,7.5
646,58.93587994542975,1018.0555555555555,68.04591768490046,0.5,0.375,20.000000000000114
647,54.29864253393665,1105.0,228.59170296987304,1.0,1.0,197.5
648,137.0682621702475,437.7380952380952,70.25423543368672,0.4,0.25,2.5
649,82.35630540463255,728.5416666666665,9.544759324129425,0.0,0.0,7.5
650,71.71964140179298,836.5909090909091,7.329325225725953,0.0,0.0,7.5
651,80.17817371937639,748.3333333333335,22.82937921967121,0.0,0.0,15.0
652,73.6008177868643,815.2083333333335,75.03789551879031,0.09090909090909093,0.09090909090909093,10.0
653,57.901085645355856,1036.25,20.0,0.42857142857142855,0.0,12.5
654,59.52052907136952,1008.0555555555555,14.277885862107105,0.125,0.0,10.0
655,82.59248637797533,726.4583333333335,125.16846286993471,0.8181818181818182,0.8181818181818182,83.75
656,59.767570558937464,1003.8888888888887,9.938079899999067,0.0,0.0,7.500000000000114
657,82.66360505166476,725.8333333333335,13.202482931462386,0.0,0.0,3.75
658,51.72413793103448,1160.0,29.82089392164015,0.5,0.16666666666666666,27.5
659,77.87993510005408,770.4166666666665,17.760951238289262,0.18181818181818185,0.0,11.25
660,72.32876712328769,829.5454545454545,21.395044610476923,0.3,0.0,20.0
661,72.15086089095381,831.5909090909091,5.767535245658872,0.0,0.0,2.5
662,64.36233611442194,932.2222222222223,11.083298524033337,0.125,0.0,7.5
663,67.85411365564038,884.25,3.1721443851123796,0.0,0.0,2.5
664,72.2495894909688,830.4545454545455,15.514589241705465,0.2,0.0,15.0
665,65.3061224489796,918.75,7.00446286306095,0.0,0.0,6.25
666,58.67970660146699,1022.5,39.37003937005906,0.8571428571428571,0.42857142857142855,33.75
667,89.26673751328373,672.1428571428571,8.12058357207291,0.07692307692307693,0.0,8.75
668,55.37929045284108,1083.4375,7.997802432543581,0.0,0.0,8.75
669,66.94560669456067,896.25,42.591812593502056,0.4444444444444444,0.4444444444444444,11.25
670,94.16688464556631,637.1666666666666,100.71356523439243,0.5714285714285714,0.5714285714285714,10.0
671,73.2722731057452,818.8636363636364,30.401921970561858,0.3,0.0,25.0
672,76.33183143387225,786.0416666666665,12.181711588369767,0.0,0.0,12.5
673,89.88764044943821,667.5,82.47377205465429,0.75,0.4166666666666667,32.5
674,70.64490232807064,849.3181818181819,61.97590174167871,0.8,0.5,52.5
675,60.98249576510447,983.8888888888887,11.432842015142601,0.25,0.0,10.0
676,72.05240174672487,832.7272727272727,31.899247380950452,0.7,0.1,20.0
677,89.0066225165563,674.1071428571429,8.43076545293777,0.07692307692307693,0.0,3.75
678,61.52093420677869,975.2777777777777,16.005400323208814,0.125,0.0,7.5
679,71.46724417975096,839.5454545454545,27.916640968698346,0.2,0.0,22.5
680,79.6900940785833,752.9166666666665,73.51894124796836,0.5454545454545454,0.4545454545454545,65.0
681,102.83877878950187,583.4375,4.749588797990833,0.0,0.0,2.5
682,77.5235531628533,773.9583333333335,36.535632340984,0.6363636363636364,0.4545454545454545,21.25
683,93.22974472807994,643.5714285714286,2.4484480715718013,0.0,0.0,1.25
684,99.58506224066392,602.5,15.258194519667127,0.06666666666666668,0.0,13.75
685,115.22633744855969,520.7142857142857,255.94612395452862,1.0,1.0,2.5
686,73.90817469204927,811.8181818181819,5.445067523050426,0.0,0.0,5.0
687,63.008663691257546,952.25,17.51606405560336,0.3333333333333333,0.1111111111111111,13.75
688,91.10629067245121,658.5714285714286,106.66500583315859,1.0,0.8461538461538461,76.25
689,68.2399772533409,879.25,17.855321335669093,0.6666666666666666,0.0,15.0
690,140.67278287461772,426.5217391304348,171.37509574163244,1.0,1.0,77.5
691,80.92160719303175,741.4583333333335,46.395697687273646,0.4545454545454545,0.18181818181818185,20.0
692,73.57859531772573,815.4545454545455,28.69942551329884,0.5,0.0,15.0
693,65.1977060066405,920.2777777777777,35.048467323527795,0.5,0.0,32.5
694,58.25242718446602,1030.0,23.51860965278349,0.42857142857142855,0.0,13.75
695,186.3354037267081,322.0,97.42176348229384,1.0,0.875,31.25
696,66.27799938631482,905.2777777777777,16.72674357480511,0.375,0.0,10.0
697,65.46644844517185,916.5,20.862646045025066,0.4444444444444444,0.0,20.0
698,60.28467764443204,995.2777777777777,68.96501170525654,0.75,0.5,32.5
699,61.43344709897611,976.6666666666665,39.12231531435168,0.5,0.25,25.0
700,73.19101746603826,819.7727272727273,12.58852947647839,0.1,0.0,10.0
701,68.43455945252353,876.75,38.21076419021215,0.5555555555555556,0.2222222222222222,25.0
702,55.39526832083093,1083.125,45.32435189828973,0.8571428571428571,0.42857142857142855,31.25
703,79.57999447361149,753.9583333333335,26.049998667093163,0.09090909090909093,0.0,22.5
704,88.41031453669596,678.6538461538463,1.8644922528524341,0.0,0.0,2.5
705,58.52072609049038,1025.2777777777776,52.77631576922398,0.75,0.5,35.0
706,64.40071556350627,931.6666666666665,16.541194367732672,0.25,0.0,17.5
707,95.46539379474942,628.5,4.262237284181474,0.0,0.0,2.5
708,64.46414182111201,930.75,13.418736900319644,0.3333333333333333,0.0,7.5
709,62.955406587000866,953.0555555555555,59.56762937314026,0.875,0.375,42.5
710,82.23872073101084,729.5833333333335,47.498172479463776,0.4545454545454545,0.0,33.75
711,66.55574043261231,901.5,51.81939791236483,0.8888888888888888,0.4444444444444444,37.5
712,101.53358011634056,590.9375,5.921029787967631,0.0,0.0,5.0
713,77.46100053792361,774.5833333333335,13.762620470761455,0.18181818181818185,0.0,8.75
714,71.37064071370641,840.6818181818181,16.2050395181599,0.1,0.0,7.5
715,72.76736493936053,824.5454545454545,6.199173498629934,0.0,0.0,5.0
716,68.49315068493149,876.0,11.683321445547927,0.1111111111111111,0.0,10.0
717,160.05080978088282,374.88095238095235,112.26689126934731,1.0,1.0,20.0
718,81.10215752534442,739.8076923076923,5.839317865649607,0.0,0.0,5.0
719,66.5024630541872,902.2222222222223,7.6779305339362525,0.125,0.0,2.5
720,87.39495798319328,686.5384615384615,27.830850023270067,0.4166666666666667,0.0,20.0
721,67.15165081141578,893.5,25.597851472340412,0.2222222222222222,0.1111111111111111,11.25
722,63.69426751592356,942.0,9.924716620639604,0.1111111111111111,0.0,8.75
723,84.62164361269325,709.0384615384614,126.49315298259937,0.8333333333333334,0.6666666666666666,107.5
724,63.962096535386436,938.0555555555555,10.914934835771387,0.375,0.0,7.5
725,136.85847589424571,438.4090909090909,152.70393490521843,1.0,1.0,133.75
726,54.71644343117698,1096.5625,26.92401054356501,0.42857142857142855,0.0,25.0
727,64.6725949878739,927.75,13.25,0.0,0.0,8.75
728,159.30559101353074,376.6346153846154,106.00240905211572,1.0,1.0,68.75
729,58.85558583106267,1019.4444444444445,99.34352421003159,1.0,0.875,70.0
730,59.65202982601491,1005.8333333333335,36.51483716701107,0.5,0.0,30.0
731,66.815144766147,898.0,33.068111527572896,0.6666666666666666,0.1111111111111111,23.75
732,69.30953006038331,865.6818181818181,21.69234545270911,0.5,0.0,15.0
733,67.3211781206171,891.25,60.86100968600505,0.3333333333333333,0.3333333333333333,47.5
734,51.58120970217992,1163.2142857142858,33.930451075753204,0.8333333333333334,0.6666666666666666,22.5
735,61.18980169971672,980.5555555555555,26.81670752477148,0.25,0.0,15.0
736,62.24783861671471,963.8888888888887,13.442837369514288,0.25,0.0,10.0
737,74.53416149068323,805.0,36.03975078109776,0.6,0.1,32.5
738,72.21006564551422,830.9090909090909,8.275973389105966,0.0,0.0,5.0
739,80.92160719303175,741.4583333333335,20.089858898348574,0.2727272727272727,0.0,15.0
740,74.73309608540923,802.8571428571429,178.10224075868697,1.0,1.0,122.5
741,63.71117600212371,941.75,16.62265020987929,0.5555555555555556,0.0,12.5
742,136.95652173913044,438.09523809523813,188.3131648944448,1.0,1.0,2.5
743,48.865619546247814,1227.857142857143,33.47249861102852,0.5,0.16666666666666666,17.5
744,81.74850979279023,733.9583333333335,15.050551392630842,0.0,0.0,8.75
745,77.19298245614036,777.2727272727273,7.6466381096639635,0.0,0.0,5.0
746,134.72824700178614,445.34090909090907,192.7938952708799,1.0,1.0,167.5
747,58.52072609049038,1025.2777777777776,22.55993389360774,0.5,0.125,20.0
748,64.13301662707839,935.5555555555555,30.54545287531394,0.5,0.125,12.5
749,57.70772107934812,1039.7222222222224,6.060395619242064,0.0,0.0,2.5
750,78.79616963064296,761.4583333333335,9.323935000250103,0.0,0.0,6.25
751,86.42659279778395,694.2307692307692,13.133362368433747,0.16666666666666666,0.0,10.0
752,70.40187738339691,852.25,45.26933288662425,0.6666666666666666,0.4444444444444444,41.25
753,150.15641293013556,399.58333333333326,28.068616321832145,0.8260869565217391,0.6521739130434783,17.5
754,86.25933093724079,695.5769230769231,41.05757971521221,0.5,0.25,5.0
755,68.92590465249856,870.5,25.342651794948374,0.5555555555555556,0.0,21.25
756,67.5512665862485,888.2142857142858,63.35436457107026,1.0,0.6,60.0
757,90.37116729424422,663.9285714285714,6.527023886606093,0.0,0.0,5.0
758,80.28993587956509,747.2916666666665,4.61635829295007,0.0,0.0,5.0
759,84.46128857606932,710.3846153846154,21.50237361329947,0.3333333333333333,0.0,12.5
760,86.35482978134516,694.8076923076923,2.6785362071507923,0.0,0.0,2.5
761,143.51726012503397,418.0681818181818,54.56924197220892,0.7142857142857143,0.42857142857142855,55.0
762,78.64164432529044,762.9545454545455,15.768862507910596,0.0,0.0,10.0
763,99.45609945609944,603.28125,62.385637557353704,0.8666666666666667,0.6666666666666666,48.75
764,174.50012983640613,343.83928571428567,116.71753552697123,1.0,1.0,105.0
765,57.355284121083386,1046.111111111111,33.189504513875235,0.625,0.0,30.000000000000114
766,68.66059817945384,873.8636363636364,120.43653381630487,1.0,0.8,45.0
767,81.56862745098039,735.5769230769231,29.370868713643503,0.08333333333333333,0.08333333333333333,5.0
768,101.0881010881011,593.5416666666666,7.104747043741639,0.0,0.0,5.0
769,117.61502858698613,510.13888888888886,219.40967551563568,1.0,1.0,203.75
770,95.61752988047807,627.5,25.609243123008017,0.14285714285714285,0.07142857142857142,12.5
771,43.47826086956522,1380.0,56.66053888436525,0.8,0.4,20.0
772,62.518089725036184,959.7222222222223,16.726743574805106,0.25,0.0,17.5
773,116.914749661705,513.1944444444445,30.59372615826509,0.5882352941176471,0.29411764705882354,8.750000000000027
774,62.90040768782761,953.8888888888887,15.772299518420436,0.375,0.0,12.5
775,56.992084432717675,1052.7777777777776,33.04971937274633,0.375,0.0,30.0
776,77.90100081146875,770.2083333333335,34.117724092064265,0.3636363636363637,0.09090909090909093,12.5
777,67.35266604303087,890.8333333333335,168.51475372269996,0.25,0.0,8.75
778,54.02363534046145,1110.625,21.4967294023998,0.7142857142857143,0.14285714285714285,16.25
779,62.86379511059371,954.4444444444445,4.530418452861137,0.0,0.0,2.5
780,76.90066996795805,780.2272727272727,16.903958165260953,0.3,0.0,15.0
781,93.62808842652795,640.8333333333334,33.72272560488286,0.14285714285714285,0.07142857142857142,15.0
782,55.220017256255396,1086.5625,11.105847277448039,0.14285714285714285,0.0,7.5
783,69.56521739130434,862.5,37.69946949228861,0.8888888888888888,0.2222222222222222,25.0
784,70.58823529411767,850.0,57.435734837848436,0.5,0.3,22.5
785,82.40343347639484,728.125,9.526552804311397,0.0,0.0,7.5
786,83.494395052184,718.6111111111112,22.45709214600859,0.125,0.125,7.5
787,51.26014523707817,1170.5,165.62306602644452,0.6666666666666666,0.3333333333333333,12.5
788,67.43467266085979,889.75,27.983253920872034,0.5555555555555556,0.0,23.75
789,98.96907216494844,606.25,2.338535866733713,0.0,0.0,0.0
790,110.72664359861591,541.875,33.65147656492952,0.3333333333333333,0.3333333333333333,1.25
791,59.916782246879336,1001.3888888888887,169.57918140335536,1.0,0.75,157.5
792,99.03713892709766,605.8333333333334,10.434983894999018,0.0,0.0,7.5
793,68.89352818371607,870.9090909090909,22.291272427707693,0.2,0.0,17.5
794,145.45454545454547,412.5,173.7679846807231,1.0,1.0,87.5
795,146.57666345226613,409.34210526315786,160.20102935404063,1.0,1.0,50.0
796,138.57574924388229,432.9761904761905,195.5420108430287,1.0,1.0,5.0
797,65.23511823865181,919.75,18.146969443959502,0.3333333333333333,0.0,8.75
798,84.78260869565217,707.6923076923077,14.191734405765455,0.25,0.0,7.5
799,90.1529380198551,665.5357142857142,21.55098960746871,0.15384615384615385,0.0,11.25
800,71.38607971445569,840.5,92.90317540321213,0.8888888888888888,0.5555555555555556,47.5
801,83.06709265175718,722.3076923076923,12.651449387229636,0.25,0.0,10.0
802,68.20119352088662,879.75,8.325412902673358,0.0,0.0,3.75
803,71.7001629549158,836.8181818181819,12.017549151274805,0.1,0.0,7.5
804,120.63492063492063,497.3684210526316,4.093776101606323,0.0,0.0,2.5
805,94.61235216819976,634.1666666666666,48.808013913928356,0.21428571428571427,0.14285714285714285,5.0
806,71.7918037690697,835.75,7.163274390947201,0.0,0.0,3.75
807,90.27777777777777,664.6153846153846,9.549776167642412,0.08333333333333333,0.0,7.5
808,75.70977917981071,792.5,12.385842357671555,0.1,0.0,15.0
809,100.07818608287724,599.53125,26.812700319764513,0.4,0.26666666666666666,5.0
810,164.42687747035575,364.9038461538461,108.19204961822157,1.0,1.0,42.5
811,85.38587848932676,702.6923076923077,83.39815033494412,0.25,0.25,5.0
812,68.78761822871883,872.25,22.20501069578666,0.6666666666666666,0.1111111111111111,16.25
813,74.57276022786121,804.5833333333335,147.901407663649,0.9090909090909092,0.7272727272727273,130.0
814,105.43657331136738,569.0625,2.3175620272173947,0.0,0.0,0.0
815,127.65957446808511,470.0,162.36532881129514,1.0,1.0,127.5
816,84.50704225352112,710.0,12.208130960079904,0.0,0.0,10.0
817,50.25426263834879,1193.9285714285713,30.759932857334967,0.5,0.16666666666666666,17.5
818,61.19847003824904,980.4166666666665,14.246100831065633,0.25,0.0,13.75
819,107.62331838565022,557.5,152.73108954723563,0.8333333333333334,0.75,117.5
820,62.756817332835254,956.0714285714287,27.020400456253878,0.6,0.0,27.5
821,64.91750067622397,924.25,26.787357092479283,0.4444444444444444,0.1111111111111111,17.5
822,76.62835249042146,783.0,178.8113531071224,1.0,1.0,72.5
823,56.77593781683002,1056.7857142857142,15.795245991068557,0.3333333333333333,0.0,7.5
824,87.34602463605823,686.9230769230769,8.035608621452377,0.0,0.0,5.0
825,108.48178675884071,553.0882352941177,7.046557971006435,0.0,0.0,5.0
826,73.2519422863485,819.0909090909091,7.996641857163263,0.0,0.0,5.0
827,75.68988173455979,792.7083333333335,8.130340125453271,0.09090909090909093,0.0,5.0
828,98.15950920245399,611.25,6.653633092779714,0.0,0.0,5.0
829,75.63025210084034,793.3333333333335,34.02409277098934,0.6363636363636364,0.0,33.75
830,67.74441878367976,885.6818181818181,70.00885422160178,0.6,0.3,15.0
831,79.16437603078614,757.9166666666665,5.7584479004521905,0.0,0.0,5.0
832,61.67904054825814,972.7777777777777,62.84288659078072,0.875,0.75,30.0
833,55.781522370714704,1075.625,51.89758544479695,0.7142857142857143,0.5714285714285714,37.5
834,152.02423574772791,394.6739130434783,146.9828893247555,1.0,1.0,7.5
835,79.84474632658718,751.4583333333335,52.583845084673,0.2727272727272727,0.18181818181818185,6.25
836,74.59734388245266,804.3181818181819,46.0001347464789,0.8,0.4,32.5
837,90.68825910931172,661.6071428571429,165.62006634931356,0.9230769230769232,0.8461538461538461,191.25
838,140.31357959075206,427.6136363636364,53.40921179870265,0.9047619047619048,0.5714285714285714,43.75
839,153.1784528976257,391.7,138.22214004999344,1.0,1.0,150.0
840,71.50595882990248,839.0909090909091,48.807049687248615,0.4,0.1,22.5
841,67.70098730606486,886.25,22.94694968835727,0.4444444444444444,0.0,13.75
842,59.2755214050494,1012.2222222222223,75.23522782694845,0.625,0.5,22.5
843,56.9770509100501,1053.0555555555557,15.310570866134073,0.0,0.0,15.0
844,71.6223548562127,837.7272727272727,30.008607580586272,0.8,0.1,20.0
845,119.7007481296758,501.25,5.352180241110459,0.0,0.0,4.999999999999943
846,57.674977470711916,1040.3125,8.425917976695478,0.0,0.0,5.0
847,66.50502251472116,902.1875,85.99089250467165,0.7142857142857143,0.2857142857142857,78.75
848,62.9737609329446,952.7777777777777,42.515429298021424,0.625,0.125,32.5
849,73.37409672040022,817.7272727272727,19.1719060990574,0.6,0.0,7.5
850,74.01177460050464,810.6818181818181,42.84075837928639,0.6,0.2,27.5
851,55.413032324268855,1082.7777777777776,11.693091766582885,0.25,0.0,5.0
852,60.116893960478706,998.0555555555555,8.480187512485434,0.0,0.0,5.0
853,70.27818448023426,853.75,28.134720542418762,0.1111111111111111,0.0,15.0
854,77.25321888412017,776.6666666666665,58.0618683436518,0.9090909090909092,0.6363636363636364,40.0
855,80.37957019257604,746.4583333333335,18.99721288037333,0.09090909090909093,0.0,13.75
856,71.33207241286141,841.1363636363636,39.418552916736886,0.5,0.0,35.0
857,89.42390369733448,670.9615384615385,12.880309268954115,0.0,0.0,7.5
858,89.70672800460035,668.8461538461537,66.96450972067352,0.6666666666666666,0.25,50.0
859,89.0302066772655,673.9285714285714,5.802884574739973,0.0,0.0,3.75
860,160.21361815754338,374.5,114.09864153441968,0.5,0.5,7.5
861,95.45454545454544,628.5714285714286,2.051629516620725,0.0,0.0,1.25
862,81.70212765957447,734.375,35.62134484172844,0.4545454545454545,0.09090909090909093,18.75
863,77.90100081146875,770.2083333333335,38.722548520066304,0.3636363636363637,0.0,32.5
864,78.00650054171182,769.1666666666665,19.799340617527868,0.18181818181818185,0.0,13.75
865,65.60962274466922,914.5,13.219304066402286,0.0,0.0,6.25
866,62.590553462764426,958.6111111111113,102.65307750373415,0.875,0.75,55.0
867,60.167130919220064,997.2222222222223,27.27036559172197,0.25,0.0,17.500000000000114
868,82.35630540463255,728.5416666666665,16.62886337733948,0.2727272727272727,0.0,8.75
869,47.404063205417614,1265.7142857142858,16.67516789989822,0.5,0.0,15.0
870,158.85273028130172,377.70833333333326,139.1247129876245,1.0,1.0,6.25
871,72.62723521320495,826.1363636363636,19.050281445178076,0.2,0.0,12.5
872,62.94256490952007,953.25,23.61276138023675,0.6666666666666666,0.1111111111111111,21.25
873,62.32147494157362,962.75,9.4505290857179,0.2222222222222222,0.0,6.25
874,69.49197157146618,863.4090909090909,33.849142718980595,0.5,0.1,27.5
875,87.7742946708464,683.5714285714286,12.702442316984815,0.0,0.0,10.0
876,64.86486486486487,925.0,66.26179140349286,1.0,0.6666666666666666,35.0
877,88.18541548897682,680.3846153846154,5.266563052934289,0.0,0.0,2.5
878,63.291139240506325,948.0,97.40251536793082,0.7777777777777778,0.5555555555555556,87.5
879,85.1063829787234,705.0,3.679900360969936,0.0,0.0,2.5
880,106.78531701890991,561.875,12.23149111923808,0.0,0.0,7.5
881,74.53416149068323,805.0,9.293203772845851,0.1,0.0,5.0
882,72.64472190692395,825.9375,83.82401114090162,0.8333333333333334,0.5,70.0
883,65.27060103345119,919.25,9.940447676035523,0.1111111111111111,0.0,10.0
884,84.64460119370592,708.8461538461537,40.93399218224789,0.16666666666666666,0.16666666666666666,17.5
885,66.57420249653259,901.25,15.662455107677085,0.4444444444444444,0.0,12.5
886,124.26648256817398,482.83333333333326,226.31074997789116,1.0,1.0,7.5
887,58.631921824104225,1023.3333333333335,14.860462083439176,0.375,0.0,10.0
888,82.21524407650584,729.7916666666665,4.5021214135363135,0.0,0.0,5.0
889,90.56603773584905,662.5,5.976143046671967,0.0,0.0,5.0
890,69.86899563318778,858.75,18.548921801549547,0.3333333333333333,0.0,17.5
891,149.269875608437,401.9565217391304,152.81943828694202,1.0,1.0,42.5
892,67.95016987542469,883.0,4.301162633521313,0.0,0.0,3.75
893,62.28373702422145,963.3333333333335,47.78423728943815,0.625,0.125,30.0
894,72.72727272727273,825.0,33.49016137749875,0.2,0.0,27.5
895,60.930888575458404,984.7222222222223,170.11615494373103,1.0,1.0,165.0
896,54.22853453841189,1106.4285714285713,46.92047114261426,0.8333333333333334,0.3333333333333333,42.5
897,61.48590947907771,975.8333333333335,22.07940216581964,0.375,0.0,22.5
898,83.26661329063249,720.5769230769231,7.01330097261941,0.0,0.0,2.5
899,63.23185011709602,948.8888888888887,17.484561090951352,0.25,0.0,12.5
900,72.52747252747254,827.2727272727273,17.978982219605545,0.1,0.0,10.0
901,76.37231503579952,785.625,67.12957774582925,0.8181818181818182,0.6363636363636364,43.75
902,91.2299755633994,657.6785714285714,50.5722987213275,0.7692307692307693,0.2307692307692308,41.25
903,172.35188509874328,348.125,111.88966384344893,1.0,1.0,76.25
904,98.2532751091703,610.6666666666666,100.49654499312679,0.9285714285714286,0.6428571428571429,75.0
905,63.75442739079104,941.1111111111113,32.1694970928965,0.375,0.0,12.5
906,154.63917525773198,388.0,171.2965265263718,1.0,1.0,35.0
907,70.94866971244289,845.6818181818181,15.04126555252209,0.2,0.0,5.0
908,91.08159392789372,658.75,11.25,0.0,0.0,5.0
909,97.58742206560042,614.8333333333334,2.4944382578492945,0.0,0.0,2.5
910,97.58742206560042,614.8333333333334,2.4944382578492945,0.0,0.0,2.5
911,49.8072932107916,1204.642857142857,12.566151489827984,0.6666666666666666,0.0,10.0
912,117.86372007366482,509.0625,63.99386567281273,1.0,1.0,45.0
913,98.46153846153848,609.375,16.165646445471953,0.13333333333333333,0.0,11.25
914,71.35135135135134,840.9090909090909,17.29663417312768,0.1,0.0,15.0
915,57.95546015562114,1035.2777777777776,16.34882107729133,0.125,0.0,7.5
916,61.66143305737939,973.0555555555555,6.211299937499416,0.0,0.0,5.0
917,103.7837837837838,578.125,12.60890062614501,0.26666666666666666,0.0,7.5
918,64.24747174301011,933.8888888888887,13.59693138946713,0.0,0.0,12.5
919,68.96551724137932,870.0,175.26001092254742,1.0,0.8,55.0
920,48.2897384305835,1242.5,28.094229198995908,0.5,0.3333333333333333,27.5
921,68.31767719897523,878.25,72.84444041929348,0.3333333333333333,0.3333333333333333,17.5
922,73.8255033557047,812.7272727272727,12.360795128079227,0.1,0.0,10.0
923,65.1112316874661,921.5,15.132745950421555,0.3333333333333333,0.0,10.0
924,256.57894736842104,233.84615384615384,208.09487339038643,0.6666666666666666,0.5,70.0
925,67.0953312831982,894.25,14.622328815889759,0.1111111111111111,0.0,15.0
926,44.943820224719104,1335.0,161.88344572562076,1.0,0.8,75.0
927,46.24277456647399,1297.5,73.72527834241569,1.0,0.8,41.25
928,73.55809417665088,815.6818181818181,98.39675547294894,0.7,0.4,75.0
929,77.3569701853344,775.625,25.72136352658363,0.18181818181818185,0.09090909090909093,7.5
930,85.08317425688574,705.1923076923077,19.938885916661263,0.0,0.0,15.0
931,91.65302782324059,654.6428571428571,3.5174492149271805,0.0,0.0,2.5
932,88.38526912181305,678.8461538461537,12.074105501801741,0.0,0.0,7.5
933,42.857142857142854,1400.0,38.17254061682111,0.5,0.5,32.5
934,84.58827298942646,709.3181818181819,93.50553525843776,0.7,0.7,70.0
935,59.72006220839813,1004.6875,61.24282483483269,0.8571428571428571,0.5714285714285714,52.5
936,86.49847518713612,693.6538461538463,4.765196805139949,0.0,0.0,2.5
937,89.55223880597015,670.0,43.98426291999657,0.6666666666666666,0.16666666666666666,37.5
938,59.55334987593052,1007.5,8.164965809277247,0.125,0.0,7.5
939,162.4007060900265,369.4565217391304,109.16171819065731,1.0,1.0,90.0
940,79.93338884263116,750.625,34.777941404478405,0.5454545454545454,0.0,27.5
941,54.81016271767057,1094.6875,32.9639362599493,0.7142857142857143,0.14285714285714285,32.5
942,74.94145199063232,800.625,7.080268944986013,0.0,0.0,5.0
943,54.160789844851905,1107.8125,12.52731390801715,0.14285714285714285,0.0,13.75
944,64.6377592243469,928.25,63.865581497391844,0.5555555555555556,0.3333333333333333,52.499999999999936
945,59.933407325194224,1001.1111111111113,13.647909440598044,0.125,0.0,12.5
946,68.87555439603445,871.1363636363636,21.85602778212965,0.3,0.0,15.0
947,68.22057987492893,879.5,39.23964831646685,0.2222222222222222,0.0,30.0
948,67.1892497200448,893.0,40.07492981902776,0.6666666666666666,0.3333333333333333,26.25
949,97.19222462203024,617.3333333333334,7.214953607304455,0.0,0.0,7.5
950,75.52447552447552,794.4444444444445,93.29446942177952,0.6666666666666666,0.3333333333333333,12.5
951,169.32322968382545,354.3518518518518,103.0138263656708,1.0,1.0,15.0
952,64.034151547492,937.0,18.53375299285064,0.0,0.0,18.75
953,96.80021511158913,619.8333333333334,16.265163865007807,0.0,0.0,15.0
954,55.045871559633035,1090.0,14.577379737113251,0.42857142857142855,0.0,13.75
955,65.97031335898846,909.5,32.592176975464525,0.4444444444444444,0.0,26.25
956,75.993091537133,789.5454545454545,13.560394445614815,0.2,0.0,7.5
957,56.812204103103625,1056.111111111111,100.83754199970966,1.0,0.875,87.5
958,126.984126984127,472.5,76.87843727370543,0.3333333333333333,0.26666666666666666,32.5
959,68.39555428897121,877.25,9.711462299777516,0.0,0.0,8.75
960,85.12960436562074,704.8076923076923,12.613391024466605,0.16666666666666666,0.0,5.0
961,77.19110158134548,777.2916666666665,13.71048615314408,0.0,0.0,13.75
962,74.59734388245266,804.3181818181819,11.485707971357524,0.2,0.0,10.0
963,67.81576716586606,884.75,20.32393908670265,0.2222222222222222,0.0,15.0
964,82.09806157354619,730.8333333333335,4.487637339278754,0.0,0.0,2.5
965,51.31337813072696,1169.2857142857142,45.19233274323766,0.8333333333333334,0.5,22.5
966,65.11908350919505,921.3888888888887,36.68770440244235,0.5,0.0,20.0
967,107.50279955207165,558.125,71.33492745492913,0.07142857142857142,0.07142857142857142,10.0
968,70.15492546039171,855.25,7.1980900244439825,0.0,0.0,5.0
969,70.28753993610223,853.6363636363636,18.779934781921447,0.1,0.0,17.5
970,103.28133405056481,580.9375,109.390623884088,0.4666666666666667,0.3333333333333333,12.5
971,112.36573946571191,533.9705882352941,3.436271013396448,0.0,0.0,2.5
972,54.23728813559321,1106.25,26.751168198790868,0.5714285714285714,0.42857142857142855,6.25
973,55.846422338568935,1074.375,14.986973510352248,0.2857142857142857,0.0,13.75
974,75.23510971786834,797.5,22.079402165819612,0.2,0.0,20.0
975,61.010486177311726,983.4375,185.02507220306657,0.8571428571428571,0.8571428571428571,87.5
976,51.75600739371534,1159.2857142857142,32.99659846414599,0.5,0.16666666666666666,20.0
977,153.41344924571717,391.1,163.52687852460218,1.0,1.0,137.5
978,76.10993657505286,788.3333333333335,51.30924759620715,0.09090909090909093,0.09090909090909093,6.25
979,78.68852459016394,762.5,6.291528696058959,0.0,0.0,5.0
980,60.57546693589097,990.5,154.02434872447927,0.6666666666666666,0.3333333333333333,32.5
981,64.74820143884892,926.6666666666665,10.474837574980445,0.125,0.0,2.5
982,85.76533650982728,699.5833333333335,87.35006996117531,0.7,0.4,31.25
983,84.62164361269325,709.0384615384614,4.4439307724197485,0.0,0.0,2.5
984,93.7907077724707,639.7222222222222,107.10485804707436,0.6666666666666666,0.3333333333333333,25.0
985,69.48465547191662,863.5,15.008331019803634,0.3333333333333333,0.0,12.5
986,60.72533033455159,988.0555555555555,9.485206154979908,0.0,0.0,7.5
987,82.61617900172115,726.25,26.565563548825132,0.2727272727272727,0.0,21.25
988,79.66804979253112,753.125,4.578596036632481,0.0,0.0,2.5
989,86.17594254937164,696.25,25.27968552019585,0.6666666666666666,0.0,21.25
990,160.14234875444842,374.66666666666674,167.27190107393676,1.0,0.9,92.5
991,89.47519357613994,670.5769230769231,62.54347600295769,0.25,0.25,2.5
992,80.2407221664995,747.75,77.07504459940327,0.25,0.125,16.25
993,60.62519734764762,989.6875,11.621471238616873,0.0,0.0,8.749999999999943
994,91.9811320754717,652.3076923076923,105.8503185674394,0.8181818181818182,0.8181818181818182,85.0
995,50.34084950183534,1191.875,56.81315318656412,0.7142857142857143,0.2857142857142857,33.75
996,87.12650097738062,688.6538461538463,46.70504198419654,0.5833333333333334,0.3333333333333333,32.5
997,69.64596633778294,861.5,6.442049363362563,0.0,0.0,6.25
998,63.43612334801762,945.8333333333335,7.4535599249993005,0.0,0.0,7.5
999,87.15953307392996,688.3928571428571,5.227600417251589,0.0,0.0,3.75
1000,174.72698907956314,343.39285714285717,26.652645654946962,0.3333333333333333,0.1851851851851852,10.0
1001,55.299539170506904,1085.0,20.72890493972125,0.7142857142857143,0.0,11.25
1002,134.37013996889578,446.52777777777777,209.6825293563676,1.0,1.0,186.25
1003,65.93406593406593,910.0,16.32993161855452,0.125,0.0,10.0
1004,73.5820132856413,815.4166666666665,9.288957004003317,0.0,0.0,6.25
1005,67.15165081141578,893.5,15.297058540778355,0.3333333333333333,0.0,10.0
1006,110.06204478014568,545.1470588235294,10.342324101480731,0.125,0.0,7.5
1007,70.28753993610223,853.6363636363636,39.64850731403901,0.9,0.3,27.5
1008,70.94295004433934,845.75,18.30471250798548,0.2222222222222222,0.0,15.0
1009,91.03224058520728,659.1071428571429,10.247261953859695,0.0,0.0,10.0
1010,96.64429530201342,620.8333333333334,2.9814239699997187,0.0,0.0,0.0
1011,157.06806282722513,382.0,59.34854673873658,0.42857142857142855,0.14285714285714285,46.25
1012,76.86148919135309,780.625,101.18632256881362,1.0,0.6363636363636364,52.5
1013,71.00591715976331,845.0,14.832396974191324,0.0,0.0,12.5
1014,72.46774636288771,827.9545454545455,23.7606000703366,0.3,0.0,25.0
1015,55.79773321708806,1075.3125,10.340870067358937,0.14285714285714285,0.0,11.25
1016,64.6725949878739,927.75,154.03915898238344,0.7777777777777778,0.5555555555555556,126.25
1017,103.18882121103546,581.4583333333334,95.65268299367712,0.8,0.8,68.75
1018,64.27423674343868,933.5,25.71964229922337,0.3333333333333333,0.0,22.5
1019,66.64815329075257,900.25,17.155538464297766,0.1111111111111111,0.0,7.5
1020,65.41490006056935,917.2222222222223,158.56756553439982,1.0,1.0,127.5
1021,56.97329376854599,1053.125,25.73148606279861,0.7142857142857143,0.0,17.5
1022,81.12676056338027,739.5833333333335,2.8565227501671018,0.0,0.0,2.5
1023,87.78840742824984,683.4615384615385,21.960157574800306,0.25,0.0,15.0
1024,93.22974472807994,643.5714285714286,2.9450754468697578,0.0,0.0,2.5
1025,146.7889908256881,408.75,183.98794118093718,0.8461538461538461,0.8461538461538461,13.75
1026,77.3286467486819,775.9090909090909,12.625404011210135,0.3,0.1,5.0
1027,88.26025459688827,679.8076923076923,2.852384033498332,0.0,0.0,2.5
1028,179.4134560092007,334.42307692307685,183.41486666464488,1.0,1.0,166.25
1029,68.37606837606836,877.5,38.17721833764215,0.5555555555555556,0.0,27.5
1030,70.17543859649122,855.0,9.151502608861565,0.1111111111111111,0.0,6.25
1031,79.22971114167814,757.2916666666665,50.82095136085335,0.7272727272727273,0.5454545454545454,23.75
1032,58.91980360065466,1018.3333333333335,15.89898669028245,0.625,0.0,12.5
1033,69.84126984126982,859.0909090909091,7.2513891516108275,0.0,0.0,7.5
1034,83.51177730192721,718.4615384615386,5.593476758557303,0.0,0.0,5.0
1035,157.8531965272297,380.1,155.83401425876187,0.9130434782608696,0.9130434782608696,137.5
1036,66.64609688367787,900.2777777777777,10.700755713476793,0.0,0.0,10.0
1037,51.94805194805195,1155.0,24.937421679075,0.2857142857142857,0.14285714285714285,21.25
1038,109.33940774487472,548.75,15.155444566227677,0.4,0.0,11.25
1039,72.96849087893864,822.2727272727273,13.9175553567226,0.0,0.0,7.5
1040,60.15037593984962,997.5,25.08319490548736,0.625,0.125,25.0
1041,89.3470790378007,671.5384615384615,106.42593335245328,0.5,0.5,2.5
1042,86.40265854333981,694.4230769230769,20.619115621046475,0.0,0.0,17.5
1043,77.0877944325482,778.3333333333335,28.12422838447701,0.6363636363636364,0.09090909090909093,22.5
1044,62.92606187729418,953.5,30.14962686336267,0.1111111111111111,0.0,21.25
1045,67.58659532526049,887.75,19.44382935535076,0.1111111111111111,0.0,17.5
1046,79.97778394890308,750.2083333333335,6.329357304568046,0.0,0.0,3.75
1047,84.98082030097375,706.0416666666665,7.3213680795023235,0.0,0.0,5.0
1048,70.4225352112676,852.0,16.537835408541227,0.0,0.0,13.75
1049,80.55944055944056,744.7916666666665,51.19873791304711,0.4545454545454545,0.2727272727272727,46.25
1050,59.29179247872632,1011.9444444444445,16.61566269859798,0.25,0.0,10.000000000000114
1051,73.68127267652804,814.3181818181819,54.54450756753721,0.8,0.4,32.5
1052,83.69659982563208,716.875,78.9588830235923,0.18181818181818185,0.18181818181818185,7.5
1053,39.16236062007072,1532.083333333333,31.20552390558797,0.8,0.4,16.25
1054,67.43677802060569,889.7222222222223,148.62538872224863,0.875,0.75,110.0
1055,87.54559666492966,685.3571428571429,6.1858957413174185,0.0,0.0,5.0
1056,49.25241864555849,1218.2142857142858,20.90430089523128,0.16666666666666666,0.0,15.0
1057,67.72009029345372,886.0,22.477766792989026,0.1111111111111111,0.0,21.25
1058,83.00079808459697,722.8846153846154,12.436227857095954,0.3333333333333333,0.0,7.5
1059,80.74011774600505,743.125,51.80215769315663,0.2727272727272727,0.0,51.25
1060,140.07782101167317,428.33333333333326,246.90022726239482,1.0,1.0,2.5
1061,50.955414012738856,1177.5,22.56933760658473,0.42857142857142855,0.0,13.75
1062,166.81146828844484,359.6875,125.63238473319687,1.0,1.0,87.5
1063,69.20415224913495,867.0,22.410934831014966,0.4444444444444444,0.2222222222222222,17.5
1064,59.11330049261085,1015.0,6.495190528383289,0.0,0.0,3.750000000000057
1065,92.23167718912985,650.5357142857142,4.138082223663025,0.0,0.0,2.5
1066,58.73355766289385,1021.5625,15.458487757539539,0.0,0.0,10.0
1067,65.359477124183,918.0,15.763882770434446,0.4444444444444444,0.0,16.25
1068,132.1949876067199,453.875,210.6084563235769,1.0,1.0,76.25
1069,56.87203791469194,1055.0,109.51598056904754,0.8571428571428571,0.7142857142857143,92.5
1070,96.28242845680664,623.1666666666666,8.488554385497897,0.0,0.0,7.5
1071,93.20388349514565,643.75,7.242607068097588,0.0,0.0,3.75
1072,48.83720930232558,1228.5714285714287,55.77149077865384,1.0,1.0,37.5
1073,66.13392119041058,907.25,30.21692406582775,0.6666666666666666,0.1111111111111111,20.0
1074,61.87338871383558,969.7222222222223,21.74487310086772,0.375,0.0,5.0
1075,58.895705521472394,1018.75,30.64412668032816,0.7142857142857143,0.0,25.0
1076,60.82793579273444,986.3888888888887,71.70649194915562,0.625,0.25,70.0
1077,64.41717791411043,931.4285714285713,72.35647299083524,0.4,0.2,12.5
1078,74.19898819561551,808.6363636363636,8.749262070418254,0.0,0.0,7.5
1079,72.7874276261373,824.3181818181819,13.7382556906431,0.0,0.0,7.5
1080,62.92606187729418,953.5,58.76010551386034,0.6666666666666666,0.5555555555555556,38.75
1081,66.1521499448732,907.0,60.413160817821804,0.6666666666666666,0.4444444444444444,41.25
1082,76.59574468085106,783.3333333333335,7.240894665409487,0.0,0.0,5.0
1083,70.07299270072993,856.25,4.220485754033533,0.0,0.0,2.5
1084,73.84615384615384,812.5,27.757062983221864,0.5,0.0,22.5
1085,80.13355592654425,748.75,19.351464199555203,0.09090909090909093,0.0,7.5
1086,132.3273360417876,453.4210526315789,171.1017136059483,1.0,1.0,2.5
1087,55.76532094103979,1075.9375,22.041774968227944,0.7142857142857143,0.0,13.75
1088,74.21984818667417,808.4090909090909,161.24611597603018,0.9,0.8,140.0
1089,84.85178134348655,707.1153846153846,3.5145513235571277,0.0,0.0,2.5
1090,61.48590947907771,975.8333333333335,5.137011669140813,0.0,0.0,2.5
1091,105.49450549450547,568.75,263.75,1.0,1.0,263.75
1092,128.01796743402582,468.68421052631584,95.5054711199857,0.4444444444444444,0.4444444444444444,2.5
1093,97.33487833140207,616.4285714285714,5.236742249505421,0.0,0.0,5.0
1094,83.73590982286635,716.5384615384614,14.023965118080412,0.0,0.0,12.5
1095,72.17058501913614,831.3636363636364,74.74474469488895,0.5,0.3,42.5
1096,62.46385193753614,960.5555555555555,45.45721092072585,0.625,0.5,20.0
1097,137.4570446735395,436.5,162.54691630418586,0.8571428571428571,0.42857142857142855,166.25
1098,63.982937883231145,937.75,16.257690487889107,0.1111111111111111,0.0,15.0
1099,59.8503740648379,1002.5,4.5069390943299945,0.0,0.0,5.0
1100,90.7862739800054,660.8928571428571,6.519691522688817,0.0,0.0,6.25
1101,87.08799516177805,688.9583333333335,18.069839435430023,0.0,0.0,16.25
1102,65.77144423129624,912.25,19.888753103198802,0.2222222222222222,0.2222222222222222,8.75
1103,81.50470219435736,736.1538461538463,15.430220866090393,0.0,0.0,12.5
1104,177.77777777777774,337.5,189.2698521240954,1.0,1.0,218.75
1105,99.30178432893715,604.21875,1.9200321449132045,0.0,0.0,1.25
1106,134.12228796844178,447.35294117647067,186.4972610353901,1.0,1.0,107.5
1107,57.24508050089445,1048.125,56.12138072962925,0.7142857142857143,0.2857142857142857,25.0
1108,61.99770378874856,967.7777777777777,11.3922759191166,0.0,0.0,7.5
1109,101.63749294184076,590.3333333333334,79.03515392251448,0.7857142857142857,0.5714285714285714,27.5
1110,53.86341776210325,1113.9285714285713,5.3213087234826215,0.0,0.0,2.5
1111,73.92887146457575,811.5909090909091,13.49548439936684,0.0,0.0,7.5
1112,71.37064071370641,840.6818181818181,27.28408854265258,0.9,0.3,25.0
1113,89.81555733761026,668.0357142857142,91.68160437968271,0.2307692307692308,0.2307692307692308,2.5
1114,50.149253731343286,1196.4285714285713,21.2071897704336,0.5,0.0,17.5
1115,188.67924528301887,318.0,127.87102877509041,0.7272727272727273,0.3636363636363637,12.5
1116,77.71181867242309,772.0833333333335,27.439959710044928,0.6363636363636364,0.18181818181818185,21.25
1117,145.11627906976744,413.46153846153845,165.65295761580566,0.7,0.7,15.0
1118,65.64551422319475,914.0,19.754746265138408,0.5555555555555556,0.1111111111111111,11.25
1119,114.04435058078144,526.1111111111112,127.85414384667178,0.9411764705882352,0.8235294117647058,110.0
1120,96.0698689956332,624.5454545454545,3.6646626128629767,0.0,0.0,2.5
1121,173.5985533453888,345.625,151.05229847638861,1.0,1.0,165.0
1122,47.82237403928266,1254.642857142857,16.00382607314863,0.6666666666666666,0.0,7.5
1123,72.32876712328769,829.5454545454545,115.76238487551178,0.5,0.4,25.0
1124,51.439069197795476,1166.4285714285713,20.303814862216992,0.5,0.16666666666666666,7.5
1125,82.07466514676547,731.0416666666665,5.348124022080598,0.0,0.0,3.75
1126,67.49156355455568,889.0,14.798648586948742,0.2222222222222222,0.0,12.5
1127,50.10438413361169,1197.5,6.373774391990981,0.14285714285714285,0.0,3.75
1128,99.66260057098364,602.03125,3.0896437395758105,0.0,0.0,1.25
1129,71.52533188837714,838.8636363636364,13.872947692756233,0.1,0.0,12.5
1130,90.73724007561435,661.25,4.79490056503484,0.0,0.0,3.75
1131,122.28479485116655,490.65789473684214,178.52252199295685,1.0,1.0,17.5
1132,106.16533038429638,565.15625,83.46251380672344,1.0,0.8666666666666667,68.75
1133,148.37712519319942,404.375,86.34731828493574,0.5217391304347826,0.3478260869565217,12.5
1134,89.14285714285714,673.0769230769231,91.98742517612145,0.4166666666666667,0.4166666666666667,40.0
1135,98.28009828009829,610.5,75.17313349861107,1.0,0.7142857142857143,45.0
1136,90.87084560370215,660.2777777777778,82.28882437660626,0.2857142857142857,0.14285714285714285,10.0
1137,77.58620689655173,773.3333333333335,35.15343352915741,0.18181818181818185,0.18181818181818185,5.0
1138,99.77827050997782,601.3333333333334,1.5456030825826168,0.0,0.0,0.0
1139,56.07476635514018,1070.0,27.21442632134655,0.7142857142857143,0.14285714285714285,18.75
1140,80.66184074457085,743.8461538461537,16.62989039163728,0.08333333333333333,0.08333333333333333,2.5
1141,64.22836752899197,934.1666666666665,177.80294960682988,1.0,1.0,146.25
1142,106.0187741579238,565.9375,3.408972535823661,0.0,0.0,2.5
1143,66.40841173215274,903.5,15.819292019556375,0.1111111111111111,0.0,10.0
1144,68.63025450386047,874.25,10.31079531365064,0.1111111111111111,0.0,7.5
1145,118.61614497528832,505.83333333333326,226.28276312810243,1.0,1.0,5.0
1146,113.30186059427936,529.5588235294117,76.06709158463552,0.6875,0.5625,57.5
1147,84.00646203554119,714.2307692307692,93.23452962713385,0.3333333333333333,0.25,65.0
1148,89.0302066772655,673.9285714285714,7.889543583705187,0.0,0.0,2.5
1149,143.94765539803709,416.8181818181818,165.41817157617032,1.0,1.0,147.5
1150,122.04424103737604,491.625,56.08740388893034,0.05263157894736842,0.05263157894736842,2.499999999999943
1151,77.81680626857606,771.0416666666665,8.194150183040472,0.09090909090909093,0.0,7.5
1152,79.62840079628401,753.5,99.67572422611237,0.8888888888888888,0.6666666666666666,65.0
1153,70.09345794392523,856.0,7.088723439378913,0.0,0.0,6.25
1154,73.29261521377012,818.6363636363636,20.23620844504733,0.2,0.0,15.0
1155,108.05084745762713,555.2941176470588,36.40946015704347,0.1875,0.125,2.5
1156,75.1922529193962,797.9545454545455,23.2774320528534,0.5,0.1,12.5
1157,56.992084432717675,1052.7777777777776,20.29109151972186,0.5,0.0,22.5
1158,67.6056338028169,887.5,56.31015302175385,0.42857142857142855,0.14285714285714285,40.0
1159,56.07476635514018,1070.0,8.897565210026091,0.0,0.0,5.0
1160,73.86681589255737,812.2727272727273,16.112338067969187,0.2,0.0,15.0
1161,112.20779220779222,534.7222222222222,106.83869230217816,0.9411764705882352,0.7647058823529411,90.0
1162,120.48192771084337,498.0,121.85442133956406,1.0,0.7692307692307693,77.5
1163,116.95906432748536,513.0,254.03936702802582,1.0,1.0,20.0
1164,73.53760445682451,815.9090909090909,21.72327844608822,0.2,0.0,17.5
1165,75.1922529193962,797.9545454545455,19.679771046172057,0.5,0.0,17.5
1166,62.35565819861432,962.2222222222223,8.534606386520673,0.0,0.0,5.0
1167,57.233704292527825,1048.3333333333333,4.714045207910317,0.0,0.0,2.5
1168,76.43312101910828,785.0,27.74511969097749,0.4545454545454545,0.09090909090909093,18.75
1169,63.291139240506325,948.0,117.48829728955988,1.0,0.8888888888888888,130.0
1170,85.78498762716525,699.4230769230769,12.525122683025987,0.25,0.0,12.5
1171,62.122519413287314,965.8333333333335,17.037540250217393,0.5,0.0,12.5
1172,84.86017357762778,707.0454545454545,5.917825711950696,0.0,0.0,2.5
1173,77.1290840921264,777.9166666666665,6.194195311382711,0.0,0.0,5.0
1174,84.30913348946136,711.6666666666665,8.799463367476198,0.0,0.0,7.5
1175,68.43455945252353,876.75,59.550923586456655,1.0,0.8888888888888888,66.25
1176,76.52173913043478,784.0909090909091,44.978185713550566,0.6,0.3,17.5
1177,64.28571428571428,933.3333333333335,11.36515141415488,0.0,0.0,2.5
1178,56.77114133648728,1056.875,14.293245782536587,0.7142857142857143,0.0,15.0
1179,63.34125098970705,947.25,30.97277029908689,0.4444444444444444,0.0,16.25
1180,100.19482326746453,598.8333333333334,5.835713800003866,0.0,0.0,5.0
1181,75.70977917981071,792.5,8.838834764831843,0.0,0.0,5.0
1182,78.5597381342062,763.75,10.077822185373186,0.18181818181818185,0.0,5.0
1183,78.79616963064296,761.4583333333335,7.249880267210548,0.0,0.0,3.75
1184,88.65435356200527,676.7857142857142,18.161688764415885,0.3076923076923077,0.0,11.25
1185,200.30911901081922,299.537037037037,106.72749358772155,0.96,0.88,30.0
1186,61.43344709897611,976.6666666666665,5.892556509887897,0.0,0.0,2.5
1187,80.04446914952752,749.5833333333335,51.16184830732977,0.3636363636363637,0.0,47.5
1188,71.6223548562127,837.7272727272727,58.16761190198689,0.6,0.3,20.0
1189,130.0421432871764,461.38888888888886,202.1640255086857,1.0,1.0,130.0
1190,88.50150854844118,677.9545454545455,164.8856979499124,0.8888888888888888,0.8888888888888888,162.5
1191,67.83493499152064,884.5,12.439855304624727,0.1111111111111111,0.0,13.75
1192,53.09734513274336,1130.0,27.329013886344303,0.7142857142857143,0.14285714285714285,11.25
1193,69.9504517633343,857.75,18.656433206805637,0.3333333333333333,0.0,15.0
1194,72.26738934056006,830.25,41.29845638761817,0.5555555555555556,0.2222222222222222,32.5
1195,86.33093525179855,695.0,114.24206755832114,0.875,0.875,77.5
1196,113.42155009451795,529.0,258.0242236690191,1.0,1.0,242.5
1197,73.8272237887721,812.7083333333335,9.707081464351452,0.09090909090909093,0.0,8.75
1198,67.49156355455568,889.0,18.0,0.2222222222222222,0.0,7.5
1199,77.64896198436236,772.7083333333335,11.522547340854027,0.09090909090909093,0.0,7.5
1200,67.0391061452514,895.0,31.741140496207752,0.4444444444444444,0.0,26.25
1201,81.78720181749337,733.6111111111112,42.75432257404428,0.8571428571428571,0.2857142857142857,42.5
1202,66.42679213949626,903.25,80.79333202684491,0.3333333333333333,0.3333333333333333,21.25
1203,80.37957019257604,746.4583333333335,88.78495985932653,0.3636363636363637,0.2727272727272727,20.0
1204,63.157894736842096,950.0,85.73214099741124,0.75,0.625,40.0
1205,83.55650776647028,718.0769230769231,48.49815466507111,0.5,0.16666666666666666,22.5
1206,75.17084282460138,798.1818181818181,17.9990817029303,0.3,0.0,17.5
1207,129.3451899757478,463.875,2.011684617428885,0.0,0.0,2.5
1208,54.81016271767057,1094.6875,78.85347864076766,0.7142857142857143,0.42857142857142855,71.25
1209,108.26050183253453,554.21875,69.34244027604957,0.8,0.4,28.75
1210,68.43455945252353,876.75,27.08897377162893,0.1111111111111111,0.0,20.0
1211,120.6896551724138,497.1428571428572,240.5998032129753,1.0,1.0,2.5
1212,74.11566535654126,809.5454545454545,13.091382567195152,0.3,0.0,10.0
1213,68.76790830945559,872.5,17.645499039801518,0.2,0.0,15.0
1214,83.6461126005362,717.3076923076923,3.3197454810830904,0.0,0.0,0.0
1215,74.76635514018692,802.5,5.539117094069973,0.0,0.0,5.0
1216,75.23510971786834,797.5,79.73393255070266,0.6666666666666666,0.6666666666666666,67.5
1217,92.97520661157024,645.3333333333334,7.6847612555990015,0.0,0.0,5.0
1218,96.56652360515021,621.3333333333334,84.63582115287961,0.9285714285714286,0.7142857142857143,35.0
1219,51.141552511415526,1173.2142857142858,40.082822418852,0.6666666666666666,0.16666666666666666,22.5
1220,61.837961637560824,970.2777777777777,28.147538979763087,0.625,0.125,15.0
1221,83.04498269896193,722.5,67.01212576840105,0.3636363636363637,0.18181818181818185,20.0
1222,55.23590333716916,1086.25,20.155644370746373,0.5714285714285714,0.0,17.5
1223,152.92712066905614,392.34375,194.98491277772618,1.0,1.0,102.5
1224,93.2862190812721,643.1818181818181,34.03024906226326,0.7777777777777778,0.3333333333333333,25.0
1225,129.29962702030667,464.0384615384616,215.98285736269955,1.0,1.0,5.0
1226,63.962096535386436,938.0555555555555,25.434495871688,0.625,0.0,17.5
1227,91.47835556765587,655.8928571428571,78.77753001138001,0.8461538461538461,0.6153846153846154,40.0
1228,81.21827411167513,738.75,28.219747813661737,0.09090909090909093,0.0,8.75
1229,70.26883151450626,853.8636363636364,31.24979338774673,0.6,0.3,20.0
1230,103.00429184549357,582.5,12.531211034852138,0.0,0.0,10.0
1231,61.31138234459267,978.6111111111113,23.42574293589782,0.5,0.125,17.5
1232,68.18181818181819,880.0,90.980767198348,0.6666666666666666,0.4444444444444444,56.25
1233,181.95602729340408,329.75,125.96849804613849,1.0,1.0,42.5
1234,66.6851903306474,899.75,18.284214503226547,0.1111111111111111,0.0,16.25
1235,80.3123257110987,747.0833333333335,124.70729618679985,0.9090909090909092,0.8181818181818182,100.0
1236,80.69487251330905,743.5416666666665,85.6255068922547,1.0,0.9090909090909092,60.0
1237,85.40925266903915,702.5,5.370861555295748,0.0,0.0,2.5
1238,91.10629067245121,658.5714285714286,19.610362733274783,0.0,0.0,15.0
1239,76.036866359447,789.0909090909091,97.35287692014087,0.3,0.3,7.5
1240,68.61063464837049,874.5,13.124404748406686,0.1111111111111111,0.0,10.0
1241,73.13019390581718,820.4545454545455,30.18537766524362,0.6,0.0,22.5
1242,59.14567360350493,1014.4444444444445,28.47459339719889,0.625,0.125,12.5
1243,73.76104494813677,813.4375,74.5605615841914,0.8333333333333334,0.3333333333333333,16.25
1244,142.2680412371134,421.7391304347826,164.51086058804069,1.0,1.0,97.5
1245,63.982937883231145,937.75,18.38647600819689,0.2222222222222222,0.0,12.5
1246,70.87248322147651,846.5909090909091,34.282793313196805,0.4,0.2,15.0
1247,93.20388349514565,643.75,11.830272910751347,0.07692307692307693,0.0,7.5
1248,66.64352655328011,900.3125,175.45226158060777,0.6666666666666666,0.6666666666666666,93.75
1249,77.81680626857606,771.0416666666665,22.301399744311016,0.18181818181818185,0.0,17.5
1250,53.377814845704755,1124.0625,51.37085597641915,0.7142857142857143,0.2857142857142857,31.25
1251,64.55083378160302,929.5,21.295539439046856,0.3333333333333333,0.0,16.25
1252,61.224489795918366,980.0,129.27683473847895,0.625,0.375,62.5
1253,61.17247238742565,980.8333333333335,16.372402253657082,0.0,0.0,12.5
1254,132.13561286583598,454.0789473684209,207.2235166977343,1.0,1.0,202.5
1255,68.22057987492893,879.5,55.75392362874561,0.7777777777777778,0.3333333333333333,47.5
1256,62.590553462764426,958.6111111111113,15.505873041058738,0.25,0.0,10.0
1257,92.63854425144748,647.6785714285714,6.909122186483251,0.0,0.0,2.5
1258,75.02131287297526,799.7727272727273,6.61047253284045,0.0,0.0,2.5
1259,67.87330316742081,884.0,31.348843678834466,0.4444444444444444,0.0,23.75
1260,87.27272727272727,687.5,16.756169931378437,0.08333333333333333,0.0,10.0
1261,79.49213359094674,754.7916666666665,13.899128170100775,0.0,0.0,10.0
1262,65.00541711809318,923.0,53.312756447214404,0.5555555555555556,0.3333333333333333,25.0
1263,81.2870448772227,738.125,12.295197233066249,0.2727272727272727,0.0,6.25
1264,82.00455580865605,731.6666666666665,90.15804025278179,0.9090909090909092,0.3636363636363637,36.25
1265,81.52599947739745,735.9615384615386,21.29324697794832,0.08333333333333333,0.0,20.0
1266,70.0525394045534,856.5,10.908712114635714,0.0,0.0,7.5
1267,57.37051792828686,1045.8333333333333,62.16018732990504,0.875,0.375,32.5
1268,95.38950715421305,629.0,4.983305462575352,0.0,0.0,2.5
1269,100.92514718250631,594.5,3.559026084010437,0.0,0.0,2.5
1270,65.61360874848117,914.4444444444445,27.456475095892372,0.625,0.0,25.0
1271,72.62723521320495,826.1363636363636,17.068166686835077,0.2,0.0,15.0
1272,57.53862546616941,1042.7777777777776,13.715585439587233,0.25,0.0,12.5
1273,91.00758396533043,659.2857142857142,9.182114380130317,0.0,0.0,6.25
1274,66.24344465912229,905.75,40.74386456879121,0.4444444444444444,0.0,45.0
1275,62.55430060816681,959.1666666666665,31.33599279493861,0.5,0.0,17.5
1276,114.31595660227572,524.8611111111112,2.277947148174545,0.0,0.0,2.5
1277,44.915782907049284,1335.8333333333333,26.444386087704054,0.6,0.2,8.75
1278,76.55502392344499,783.75,48.48217026220396,0.6363636363636364,0.0,48.75
1279,101.58013544018058,590.6666666666666,6.087327455916557,0.0,0.0,2.5
1280,70.40187738339691,852.25,9.4505290857179,0.0,0.0,7.5
1281,85.97409754753376,697.8846153846154,11.043887704124025,0.0,0.0,12.5
1282,83.48943002408348,718.6538461538463,14.89112360200457,0.0,0.0,12.5
1283,66.46358349487677,902.75,28.227867436276515,0.7777777777777778,0.0,21.25
1284,186.10199821055767,322.40384615384613,108.27644633696171,0.9583333333333334,0.9166666666666666,60.0
1285,79.86688851913478,751.25,124.84990989183771,0.6666666666666666,0.3333333333333333,122.5
1286,64.55469216975493,929.4444444444445,34.07055134769325,0.75,0.0,22.5
1287,82.4270177447052,727.9166666666665,4.545296714431548,0.0,0.0,2.5
1288,64.15206415206414,935.2777777777777,44.80582248318919,0.75,0.25,25.0
1289,54.529963078670825,1100.3125,47.292928580814284,0.42857142857142855,0.2857142857142857,41.25
1290,80.98987626546682,740.8333333333335,9.646530752325187,0.09090909090909093,0.0,7.5
1291,63.45848757271285,945.5,56.3892720293497,0.8888888888888888,0.6666666666666666,48.75
1292,75.37688442211055,796.0,85.61687917694735,0.1111111111111111,0.1111111111111111,16.25
1293,124.63935372186958,481.38888888888886,195.1125427054541,1.0,1.0,52.5
1294,61.944364783481504,968.6111111111113,32.81071791162978,0.5,0.0,25.0
1295,57.27923627684965,1047.5,100.0,1.0,0.8571428571428571,96.25
1296,95.57945041816008,627.75,195.57751021014658,0.75,0.625,41.25
1297,95.06205439662004,631.1666666666666,75.11583647200428,0.21428571428571427,0.21428571428571427,5.0
1298,58.90373602399782,1018.6111111111113,95.42384333353591,0.875,0.75,62.5
1299,75.39267015706804,795.8333333333335,28.945590721597338,0.3636363636363637,0.0,25.0
1300,66.74082313681869,899.0,11.629703349613008,0.1111111111111111,0.0,3.75
1301,78.68852459016394,762.5,183.28029535841182,0.9090909090909092,0.8181818181818182,133.75
1302,72.5673446948873,826.8181818181819,39.64459881088512,0.6,0.1,30.0
1303,138.58267716535434,432.95454545454544,161.59122874281132,1.0,1.0,155.0
1304,81.31352619233776,737.8846153846154,4.583221264543456,0.0,0.0,5.0
1305,89.39828080229228,671.1538461538463,5.425667684486879,0.0,0.0,5.0
1306,54.37553101104503,1103.4375,10.37857619088476,0.0,0.0,7.5
1307,63.30597889800704,947.7777777777777,11.207911667684453,0.0,0.0,5.0
1308,55.220017256255396,1086.5625,7.493486755176124,0.0,0.0,6.25
1309,147.1640265712826,407.70833333333326,158.90234925016756,1.0,0.9565217391304348,33.75
1310,63.54810238305386,944.1666666666665,21.311186420907372,0.5,0.0,7.5
1311,55.7006092254134,1077.1875,8.51813323152438,0.0,0.0,5.0
1312,79.6900940785833,752.9166666666665,15.201196955795586,0.0,0.0,11.25
1313,153.21756894790605,391.6,156.17599047228737,1.0,1.0,117.5
1314,135.69776407093292,442.1590909090909,202.58597424997097,1.0,1.0,175.0
1315,62.051134731399024,966.9444444444445,90.22947425698187,1.0,0.875,62.49999999999989
1316,107.50988142292488,558.0882352941177,2.1911271214340204,0.0,0.0,0.0
1317,145.10278113663844,413.5,7.3484692283495345,0.0,0.0,6.25
1318,90.59045564842276,662.3214285714286,26.63349605750057,0.2307692307692308,0.0,10.0
1319,72.01309328968904,833.1818181818181,15.30340533593857,0.3,0.1,2.5
1320,61.276595744680854,979.1666666666665,16.87371394276382,0.125,0.0,12.5
1321,70.36247334754798,852.7272727272727,24.82792016731789,0.4,0.0,17.5
1322,101.93788160339793,588.59375,4.918773824592873,0.0,0.0,2.5
1323,57.00712589073634,1052.5,3.307189138830738,0.0,0.0,2.5
1324,78.75307629204265,761.875,20.28764504979981,0.4545454545454545,0.0,8.75
1325,94.0649496080627,637.8571428571429,3.6421567954234177,0.0,0.0,2.5
1326,92.33305853256391,649.8214285714286,13.17682915312376,0.0,0.0,11.25
1327,60.78147612156296,987.1428571428572,6.468132241526726,0.0,0.0,7.5
1328,92.7536231884058,646.875,119.6789324609808,1.0,0.8,83.75
1329,64.17112299465239,935.0,18.219342590896204,0.375,0.0,10.0
1330,53.85694249649368,1114.0625,18.78902189444677,0.8571428571428571,0.0,15.0
1331,100.3659174072138,597.8125,53.57438607907701,0.7333333333333333,0.4,13.75
1332,58.871627146361405,1019.1666666666665,14.191155304938654,0.125,0.0,10.0
1333,105.32089961601757,569.6875,3.2923917977664807,0.0,0.0,1.25
1334,71.1206896551724,843.6363636363636,25.92304249565249,0.7,0.0,20.0
1335,53.85694249649368,1114.0625,14.138682532329526,0.42857142857142855,0.0,11.25
1336,135.1440874461742,443.97058823529403,222.83609583174882,1.0,1.0,50.0
1337,73.08970099667775,820.9090909090909,10.128309070525997,0.2,0.0,5.0
1338,77.92207792207792,770.0,15.2411176318099,0.8181818181818182,0.0,11.25
1339,68.47360912981455,876.25,13.885694076998815,0.1111111111111111,0.0,11.25
1340,79.53603976801989,754.375,16.076801350600395,0.09090909090909093,0.0,8.75
1341,71.8562874251497,835.0,5.47722557505166,0.0,0.0,5.0
1342,55.73294629898403,1076.5625,7.899515412352836,0.0,0.0,6.25
1343,56.42080517190714,1063.4375,47.728684705845424,0.8571428571428571,0.42857142857142855,37.500000000000064
1344,71.13218731475995,843.5,25.96150997149434,0.6666666666666666,0.2222222222222222,20.0
1345,94.8616600790514,632.5,141.05628309295548,1.0,1.0,23.75
1346,86.40265854333981,694.4230769230769,131.1969814019899,0.75,0.6666666666666666,30.0
1347,225.35211267605638,266.25,185.88554946525562,0.875,0.6875,166.25
1348,77.04654895666131,778.75,36.235629335411474,0.7272727272727273,0.18181818181818185,23.75
1349,57.83132530120483,1037.5,32.73950213427199,0.42857142857142855,0.14285714285714285,13.75
1350,72.34858865442588,829.3181818181819,9.05104897806358,0.2,0.0,7.5
1351,66.51884700665188,902.0,18.193405398660254,0.1111111111111111,0.0,7.5
1352,134.9036402569593,444.7619047619048,21.68366680005233,0.15,0.15,2.5
1353,97.79951100244499,613.5,2.7080128015453195,0.0,0.0,0.0
1354,73.74301675977654,813.6363636363636,32.56747604386574,0.3,0.1,27.5
1355,102.4,585.9375,5.986638768958756,0.0,0.0,5.0
1356,78.15468113975577,767.7083333333335,23.194340485462302,0.18181818181818185,0.0,6.25
1357,69.14614981665794,867.7272727272727,26.91431153288629,0.3,0.0,17.5
1358,86.78720445062588,691.3461538461537,32.4721091064699,0.5,0.16666666666666666,22.5
1359,100.5305780508238,596.8333333333334,10.506611674982992,0.35714285714285715,0.0,5.0
1360,66.53728860548932,901.75,9.685685313905259,0.1111111111111111,0.0,3.75
1361,64.22263848006422,934.25,5.595757321399847,0.0,0.0,5.0
1362,91.03224058520728,659.1071428571429,14.349189339258073,0.15384615384615385,0.0,11.25
1363,60.36892118501956,993.8888888888887,42.05008771148058,0.75,0.375,42.5
1364,71.19741100323624,842.7272727272727,29.780533327817626,0.6,0.1,30.0
1365,68.76790830945559,872.5,17.88854381999832,0.2222222222222222,0.0,15.0
1366,147.90996784565917,405.6521739130435,181.38689341837727,1.0,1.0,5.0
1367,61.32879045996592,978.3333333333335,12.909944487358056,0.375,0.0,5.0
1368,58.221024258760096,1030.5555555555557,29.197074096602027,0.625,0.125,10.0
1369,102.1820117083555,587.1875,7.1192410936840735,0.0,0.0,6.25
1370,96.28242845680664,623.1666666666666,119.70612162941191,1.0,0.8571428571428571,65.0
1371,72.38826432684398,828.8636363636364,12.030436607150948,0.0,0.0,7.5
1372,78.85304659498208,760.9090909090909,11.883560420364885,0.2,0.0,7.5
1373,55.427251732101624,1082.5,15.103807466993215,0.42857142857142855,0.0,13.75
1374,58.85959534028203,1019.375,18.61409076479429,0.42857142857142855,0.0,7.5
1375,65.50218340611353,916.0,13.472193585307481,0.2222222222222222,0.0,12.5
1376,72.84768211920529,823.6363636363636,5.5762927938115,0.0,0.0,2.5
1377,77.02594276544531,778.9583333333335,27.39484313799873,0.2727272727272727,0.0,16.25
1378,134.52229299363057,446.02272727272725,178.96587265280542,1.0,1.0,152.5
1379,73.76362112321878,813.4090909090909,9.431133600566561,0.0,0.0,10.0
1380,59.097127222982216,1015.2777777777777,5.944704044175733,0.0,0.0,4.999999999999886
1381,71.52533188837714,838.8636363636364,51.33848941941873,0.8,0.4,52.5
1382,65.21739130434783,920.0,159.1513954279593,1.0,1.0,170.0
1383,59.8503740648379,1002.5,13.123346456686358,0.375,0.0,5.000000000000114
1384,60.5890603085554,990.2777777777777,27.74998609720484,0.125,0.0,15.0
1385,78.88249794576828,760.625,6.702378309227254,0.0,0.0,3.75
1386,65.60962274466922,914.5,12.589678312014172,0.1111111111111111,0.0,6.25
1387,175.24644030668128,342.375,130.6126788447431,1.0,0.9411764705882352,46.25
1388,71.08239095315024,844.0909090909091,10.072054457345608,0.0,0.0,5.0
1389,75.11737089201878,798.75,24.20614591379635,0.18181818181818185,0.0,18.75
1390,55.846422338568935,1074.375,20.22336210920429,0.7142857142857143,0.14285714285714285,10.0
1391,56.48535564853557,1062.2222222222224,26.91149187729525,0.375,0.0,15.0
1392,151.73172072567345,395.4347826086956,64.75561153253624,0.8181818181818182,0.5,42.5
1393,85.45603944124899,702.1153846153846,47.50350345223693,0.4166666666666667,0.08333333333333333,32.5
1394,69.59043131569409,862.1875,31.13572857265428,0.2857142857142857,0.0,31.25
1395,66.06110652353426,908.25,27.614534216604124,0.3333333333333333,0.0,21.25
1396,50.526315789473685,1187.5,40.839406739779456,0.6666666666666666,0.3333333333333333,27.5
1397,67.6056338028169,887.5,53.17424188458168,0.4444444444444444,0.3333333333333333,41.25
1398,125.65445026178008,477.5,171.39541676745296,1.0,1.0,120.0
1399,69.93006993006993,858.0,13.171939872319493,0.1111111111111111,0.0,1.25
1400,82.78240873814316,724.7916666666665,13.823980271815913,0.4545454545454545,0.0,11.25
1401,66.97674418604649,895.8333333333335,20.292992769809867,0.0,0.0,11.25
1402,74.36619718309859,806.8181818181819,139.40657880773068,1.0,0.9,117.5
1403,70.04510480233482,856.5909090909091,46.81045832145272,0.4,0.0,40.0
1404,75.38549400342661,795.9090909090909,23.699653029506745,0.5,0.0,22.5
1405,183.5106382978724,326.95652173913044,113.85048481341451,1.0,1.0,80.0
1406,66.09749380335995,907.75,30.1340753964677,0.6666666666666666,0.4444444444444444,22.5
1407,69.98939554612937,857.2727272727273,12.175541123617158,0.1,0.0,10.0
1408,166.40986132511557,360.5555555555555,143.52915133850203,1.0,1.0,117.5
1409,51.85185185185186,1157.142857142857,16.444092047459055,0.0,0.0,15.0
1410,59.25925925925926,1012.5,44.06434688800762,0.5,0.25,25.0
1411,119.7380729653882,501.09375,56.11072166651842,0.7142857142857143,0.5714285714285714,42.5
1412,63.361689645057204,946.9444444444445,47.75193099320956,0.625,0.375,20.0
1413,69.74900924702774,860.2272727272727,45.156980551870205,0.6,0.3,25.0
1414,47.68663071246097,1258.2142857142858,5.125964319431186,0.0,0.0,5.0
1415,78.1971219114852,767.2916666666665,152.40932527426122,1.0,0.9090909090909092,131.25
1416,109.05992615734165,550.15625,137.06598761522682,0.5714285714285714,0.5714285714285714,123.75
1417,60.544904137235115,991.0,106.29675441893794,1.0,0.6666666666666666,45.0
1418,76.78883071553228,781.3636363636364,34.1847194126603,0.2,0.0,22.5
1419,174.29193899782138,344.25,93.4548687870247,1.0,0.8,48.75
1420,73.6008177868643,815.2083333333335,7.392164583004239,0.0,0.0,6.25
1421,61.224489795918366,980.0,12.133516482134198,0.125,0.0,12.5
1422,243.53120243531205,246.375,105.41132232829641,0.9375,0.6875,32.5
1423,62.93706293706293,953.3333333333335,9.7182531580755,0.25,0.0,10.0
1424,87.86257392283865,682.8846153846154,13.687661268672494,0.0,0.0,10.0
1425,79.6900940785833,752.9166666666665,12.617503274772265,0.18181818181818185,0.0,7.5
1426,73.2519422863485,819.0909090909091,19.635100969504702,0.1,0.0,5.0
1427,129.46313896737735,463.4523809523809,228.5480518799944,1.0,1.0,10.0
1428,79.3607054284927,756.0416666666665,3.4548174899535415,0.0,0.0,3.75
1429,60.96528365791702,984.1666666666665,12.0761472884912,0.25,0.0,5.0
1430,104.97539639147075,571.5625,19.382559009325885,0.13333333333333333,0.0,21.25
1431,122.28479485116655,490.65789473684214,7.77318709881154,0.1111111111111111,0.0,5.0
1432,100.6429969247973,596.1666666666666,18.83849486792639,0.21428571428571427,0.0,15.0
1433,107.82241014799152,556.4705882352941,11.976042983236669,0.125,0.0,5.0
1434,67.68189509306261,886.5,40.546269865426595,0.3333333333333333,0.0,35.0
1435,73.00884955752213,821.8181818181819,45.139819514317125,0.7,0.0,32.5
1436,92.08002192381474,651.6071428571429,2.772174052903576,0.0,0.0,2.5
1437,82.92542470486612,723.5416666666665,17.691168151243023,0.0,0.0,12.5
1438,49.180327868852466,1220.0,56.39465526853713,1.0,0.8333333333333334,55.0
1439,65.19967400162999,920.25,62.22389010661418,0.6666666666666666,0.2222222222222222,48.75
1440,77.23815096547688,776.8181818181819,50.02375468772662,0.6,0.3,32.5
1441,78.99067471201316,759.5833333333335,20.560716319125547,0.2727272727272727,0.0,15.0
1442,85.50287750068513,701.7307692307692,9.218742164774524,0.08333333333333333,0.0,5.0
1443,95.97440682484672,625.1666666666666,5.436502143433364,0.0,0.0,5.0
1444,86.7630700778643,691.5384615384614,5.418847232155913,0.0,0.0,5.0
1445,76.85589519650655,780.6818181818181,18.124910943069896,0.2,0.0,17.5
1446,76.45525629887054,784.7727272727273,13.248265128899703,0.0,0.0,10.0
1447,66.66666666666667,900.0,32.977264895682296,0.8888888888888888,0.2222222222222222,27.5
1448,69.9912510936133,857.25,31.887497549980306,0.3333333333333333,0.1111111111111111,30.0
1449,161.50740242261102,371.5,93.92816404039844,0.9166666666666666,0.9166666666666666,5.0
1450,56.78233438485804,1056.6666666666667,73.84292638958573,0.625,0.5,27.5
1451,90.66378845116027,661.7857142857142,98.29087922475568,0.7692307692307693,0.7692307692307693,66.25
1452,119.48790896159315,502.1428571428572,270.71145871120973,1.0,1.0,2.5
1453,62.111801242236034,966.0,11.736694594305506,0.3333333333333333,0.0,5.0
1454,85.24590163934427,703.8461538461537,8.694349658044091,0.0,0.0,7.5
1455,101.20888389091931,592.8333333333334,63.09956858454387,0.2857142857142857,0.2857142857142857,5.0
1456,86.64259927797832,692.5,4.902903378454602,0.0,0.0,5.0
1457,83.67228355607205,717.0833333333335,16.671874186452133,0.09090909090909093,0.0,13.75
1458,64.17112299465239,935.0,15.986105077709064,0.375,0.0,10.0
1459,71.6417910447761,837.5,51.88930525647844,0.4444444444444444,0.3333333333333333,12.5
1460,94.11764705882355,637.5,1.889822365046136,0.0,0.0,0.0
1461,58.51619644723093,1025.357142857143,142.418075268785,1.0,0.8333333333333334,77.5
1462,58.7915078933043,1020.5555555555555,9.773673380977307,0.25,0.0,5.000000000000114
1463,86.93402328589909,690.1785714285713,3.94881149776714,0.0,0.0,2.5
1464,48.40103716508211,1239.642857142857,32.98886639644425,0.6666666666666666,0.3333333333333333,12.5
1465,73.59910788960134,815.2272727272727,9.011012546181368,0.0,0.0,7.5
1466,77.7327935222672,771.875,17.020973581633534,0.18181818181818185,0.0,17.5
1467,156.04681404421328,384.5,146.95237323704575,1.0,1.0,72.5
1468,97.3499188750676,616.3333333333334,1.795054935711501,0.0,0.0,2.5
1469,112.94117647058823,531.25,2.083333333333333,0.0,0.0,1.25
1470,53.70629370629371,1117.1875,33.27061156260883,0.5714285714285714,0.42857142857142855,12.5
1471,69.60556844547564,862.0,21.17781858454737,0.2222222222222222,0.0,16.25
1472,98.15950920245399,611.25,144.27079572803362,0.8,0.6666666666666666,132.5
1473,88.67775138558987,676.6071428571429,44.88683332696181,0.4615384615384616,0.4615384615384616,6.25
1474,112.89429994465964,531.4705882352941,56.22341740200308,0.125,0.125,2.5
1475,60.84507042253522,986.1111111111113,14.865653511399598,0.25,0.0,10.0
1476,64.36041834271923,932.25,15.429274124209472,0.3333333333333333,0.0,5.0
1477,94.09129095491457,637.6785714285714,3.1993701548515925,0.0,0.0,2.5
1478,65.80751302440362,911.75,12.095970403402946,0.2222222222222222,0.0,8.75
1479,64.46414182111201,930.75,3.3634060117684275,0.0,0.0,1.25
1480,117.99410029498523,508.5,254.3968356721443,1.0,1.0,237.5
1481,82.4270177447052,727.9166666666665,6.909634979907083,0.0,0.0,5.0
1482,78.40807840807841,765.2272727272727,105.68743875571876,0.3,0.3,2.5
1483,71.89542483660131,834.5454545454545,52.503443413246096,0.7,0.2,40.0
1484,89.5045285029302,670.3571428571429,21.10469528956308,0.07692307692307693,0.0,20.0
1485,61.767229053474395,971.3888888888887,51.22270426382002,0.625,0.125,27.5
1486,72.26936764303312,830.2272727272727,29.53146521960143,0.3,0.2,17.5
1487,59.833795013850406,1002.7777777777777,13.866648860387428,0.0,0.0,12.499999999999886
1488,65.21739130434783,920.0,8.660254037844387,0.0,0.0,5.0
1489,78.96901562928434,759.7916666666665,124.65142370047586,1.0,0.5454545454545454,77.5
1490,84.0630472854641,713.75,13.520817282989961,0.18181818181818185,0.0,7.5
1491,135.2112676056338,443.75,144.98383530587125,0.3333333333333333,0.3333333333333333,131.25
1492,109.58904109589041,547.5,4.021998332699218,0.0,0.0,2.5
1493,70.51282051282051,850.9090909090909,16.38571742515994,0.0,0.0,12.5
1494,66.79654884497634,898.25,4.479118216792228,0.0,0.0,3.75
1495,100.3921568627451,597.65625,45.298219732540254,0.2,0.2,2.5
1496,76.6773162939297,782.5,11.822551639672685,0.1,0.0,10.0
1497,65.359477124183,918.0,22.688102609076854,0.3333333333333333,0.0,12.5
1498,100.78387458006719,595.3333333333334,55.40657802904714,0.7142857142857143,0.21428571428571427,15.0
1499,92.11873080859777,651.3333333333334,5.390320542932078,0.0,0.0,5.0
1500,68.6695278969957,873.75,25.55019569396681,0.3333333333333333,0.0,20.0
1501,62.959076600209855,953.0,55.38275905008707,0.8888888888888888,0.6666666666666666,45.0
1502,70.68273092369478,848.8636363636364,57.09206715675486,0.5,0.0,32.5
1503,140.88820826952528,425.86956521739125,197.1696586473571,1.0,1.0,12.5
1504,70.71302298173245,848.5,24.854577043273128,0.3333333333333333,0.0,12.5
1505,112.46485473289594,533.5,107.84170498157629,0.8571428571428571,0.5714285714285714,97.5
1506,75.42857142857143,795.4545454545455,12.468969749404732,0.1,0.0,10.0
1507,60.657118786857616,989.1666666666665,7.993052538854532,0.0,0.0,5.0
1508,85.05997818974919,705.3846153846154,4.985185152621432,0.0,0.0,0.0
1509,80.53691275167785,745.0,6.535161308899218,0.0,0.0,3.75
1510,103.0319291655487,582.34375,4.878904686248749,0.0,0.0,3.75
1511,94.31490699502228,636.1666666666666,4.268749491621899,0.0,0.0,2.5
1512,142.0500403551251,422.3863636363636,182.07059893312748,1.0,1.0,172.5
1513,102.12765957446808,587.5,98.09912079116714,1.0,1.0,90.0
1514,83.28884143085959,720.3846153846154,5.080709543701117,0.0,0.0,5.0
1515,71.04795737122558,844.5,29.214722315983085,0.5555555555555556,0.2222222222222222,18.75
1516,63.60424028268551,943.3333333333335,16.666666666666668,0.5,0.0,17.5
1517,135.1931330472103,443.80952380952385,186.09652361012346,1.0,1.0,5.0
1518,69.18238993710692,867.2727272727273,24.108055647592945,0.3,0.0,10.0
1519,83.38158656629993,719.5833333333335,31.800703171820306,0.4545454545454545,0.0,27.5
1520,78.43137254901961,765.0,13.307266185559428,0.09090909090909093,0.0,6.25
1521,99.72299168975071,601.6666666666666,3.7267799624996503,0.0,0.0,2.5
1522,64.65517241379311,928.0,16.837458240482732,0.6666666666666666,0.0,16.25
1523,71.8562874251497,835.0,34.24510582152248,0.5,0.2,30.0
1524,69.02502157031924,869.25,9.290452088031024,0.2222222222222222,0.0,7.5
1525,84.6675712347354,708.6538461538463,7.112785388041128,0.0,0.0,5.0
1526,82.4524312896406,727.6923076923077,23.645245465761075,0.5833333333333334,0.0,17.5
1527,141.66890260262946,423.52272727272725,100.36484322808631,0.9047619047619048,0.8095238095238095,52.5
1528,78.1334780249593,767.9166666666665,10.744830798523022,0.09090909090909093,0.0,5.0
1529,60.016671297582675,999.7222222222223,16.433554953054493,0.25,0.0,12.5
1530,69.36416184971098,865.0,36.21118611699981,0.6666666666666666,0.2222222222222222,28.75
1531,116.5991902834008,514.5833333333334,236.58339203944317,1.0,1.0,222.5
1532,73.02904564315351,821.5909090909091,24.150868779609514,0.1,0.0,25.0
1533,58.14266487213998,1031.9444444444443,21.173154444621677,0.5,0.0,12.5
1534,76.83352735739231,780.9090909090909,10.45948499909441,0.1,0.0,12.5
1535,114.70340174304188,523.0882352941177,265.86502741573247,1.0,1.0,5.0
1536,62.93706293706293,953.3333333333335,12.076147288491196,0.125,0.0,10.0
1537,74.97396737244011,800.2777777777777,8.932186217118627,0.0,0.0,5.0
1538,86.61854525263742,692.6923076923077,2.291610632271728,0.0,0.0,2.5
1539,66.3716814159292,904.0,17.86057109949175,0.2222222222222222,0.0,13.75
1540,61.855670103092784,970.0,22.23610677354389,0.25,0.125,7.5
1541,70.75471698113208,848.0,31.36080356113344,0.2222222222222222,0.0,26.25
1542,76.88200747463962,780.4166666666665,6.679674809117251,0.0,0.0,3.75
1543,100.61486864169926,596.3333333333334,2.392116682401221,0.0,0.0,0.0
1544,171.42857142857142,350.0,236.56394484367226,1.0,1.0,247.5
1545,79.75630019385213,752.2916666666665,30.745228852981768,0.18181818181818185,0.0,26.25
1546,124.45414847161571,482.10526315789474,217.6719875933178,1.0,1.0,5.0
1547,56.10753945061368,1069.375,61.65364445837732,0.5,0.5,45.0
1548,94.88844959051114,632.3214285714286,1.4833256898067992,0.0,0.0,0.0
1549,71.17821515233216,842.9545454545455,7.056443043754556,0.0,0.0,5.0
1550,82.47422680412372,727.5,12.519215999045993,0.0,0.0,7.5
1551,111.23227917121048,539.4117647058823,13.24346153225815,0.0,0.0,15.0
1552,74.32432432432431,807.2727272727273,5.051388811566562,0.0,0.0,5.0
1553,79.96192289386006,750.3571428571429,151.97173475112174,0.8,0.8,22.5
1554,91.3291655341125,656.9642857142858,44.40256760823728,0.7692307692307693,0.38461538461538464,25.0
1555,108.42412968376296,553.3823529411766,1.9061002054140763,0.0,0.0,2.5
1556,65.75342465753424,912.5,11.726039399558575,0.25,0.0,12.5
1557,91.93054136874363,652.6666666666666,4.515405728048021,0.0,0.0,5.0
1558,78.7100300628587,762.2916666666665,10.12722883561386,0.0,0.0,3.75
1559,63.17636735887687,949.7222222222223,41.59067143744237,0.625,0.5,45.0
1560,75.04263786242184,799.5454545454545,14.955167160329182,0.0,0.0,15.0
1561,76.49402390438247,784.375,12.914986449857393,0.3636363636363637,0.0,7.5
1562,111.42636058808357,538.4722222222222,46.128887135883325,0.4117647058823529,0.2352941176470588,7.5
1563,83.1648859370488,721.4583333333335,22.04300563040853,0.5454545454545454,0.3636363636363637,18.75
1564,79.25151348376444,757.0833333333335,10.449946836653707,0.2727272727272727,0.0,5.0
1565,61.91950464396285,969.0,23.02715787933891,0.6666666666666666,0.2222222222222222,17.5
1566,68.74602164226607,872.7777777777777,78.92018158702119,0.8571428571428571,0.8571428571428571,55.0
1567,95.31374106433678,629.5,7.916228058025278,0.0,0.0,5.0
